43,-24,38,10,-3,-2,-23,36,-20,-22,-57,17,1,-7,20,-23,19,0,3,13,11,-6,2,-46,-14,-3,52,29,-4,-6,-35,-15,-12,16,19,16,10,11,2,-3,8,-8,6,11,-10,-43,36,98,4,18,54,-10,4,40,-24,-78,0,17,-34,5,-1,9,34,6,5
-12,16,19,16,10,11,2,-3,8,-8,6,11,-10,-43,36,98,4,18,54,-10,4,40,-24,-78,0,17,-34,5,-1,9,34,6,6,30,-61,-21,-1,9,45,-9,-29,-44,-7,48,8,-22,-7,-32,-1,74,19,-67,-22,12,6,86,25,-85,-47,-45,1,-1,23,-2,5
4,18,54,-10,4,40,-24,-78,0,17,-34,5,-1,9,34,6,6,30,-61,-21,-1,9,45,-9,-29,-44,-7,48,8,-22,-7,-32,-1,74,19,-67,-22,12,6,86,25,-85,-47,-45,1,-1,23,-2,-20,-14,37,11,-4,-30,-52,-16,3,8,-9,-22,1,46,21,17,5
6,30,-61,-21,-1,9,45,-9,-29,-44,-7,48,8,-22,-7,-32,-1,74,19,-67,-22,12,6,86,25,-85,-47,-45,1,-1,23,-2,-20,-14,37,11,-4,-30,-52,-16,3,8,-9,-22,1,46,21,17,-23,-26,-110,13,-5,-9,25,-53,-5,-2,37,32,11,3,-33,-3,5
-20,-14,37,11,-4,-30,-52,-16,3,8,-9,-22,1,46,21,17,-23,-26,-110,13,-5,-9,25,-53,-5,-2,37,32,11,3,-33,-3,36,3,-20,-5,3,12,38,46,-29,37,-23,29,-3,-21,-71,-7,-1,-64,-11,-21,-16,-26,12,-33,-17,10,-13,-93,-5,-16,3,-13,5
-20,-14,37,11,-4,-30,-52,-16,3,8,-9,-22,1,46,21,17,-23,-26,-110,13,-5,-9,25,-53,-5,-2,37,32,11,3,-33,-3,36,3,-20,-5,3,12,38,46,-29,37,-23,29,-3,-21,-71,-7,-1,-64,-11,-21,-16,-26,12,-33,-17,10,-13,-93,-5,-16,3,-13,5
-20,-14,37,11,-4,-30,-52,-16,3,8,-9,-22,1,46,21,17,-23,-26,-110,13,-5,-9,25,-53,-5,-2,37,32,11,3,-33,-3,36,3,-20,-5,3,12,38,46,-29,37,-23,29,-3,-21,-71,-7,-1,-64,-11,-21,-16,-26,12,-33,-17,10,-13,-93,-5,-16,3,-13,5
-20,-14,37,11,-4,-30,-52,-16,3,8,-9,-22,1,46,21,17,-23,-26,-110,13,-5,-9,25,-53,-5,-2,37,32,11,3,-33,-3,36,3,-20,-5,3,12,38,46,-29,37,-23,29,-3,-21,-71,-7,-1,-64,-11,-21,-16,-26,12,-33,-17,10,-13,-93,-5,-16,3,-13,5
-1,-64,-11,-21,-16,-26,12,-33,-17,10,-13,-93,-5,-16,3,-13,5,-6,-23,29,-3,-3,-46,-25,19,3,-46,-13,2,35,56,-4,-14,-9,39,114,11,4,-9,33,21,6,-90,-109,-12,-37,-28,31,-48,9,33,39,4,33,35,-63,21,-5,-21,-69,-13,-25,-32,2,5
-14,-9,39,114,11,4,-9,33,21,6,-90,-109,-12,-37,-28,31,-48,9,33,39,4,33,35,-63,21,-5,-21,-69,-13,-25,-32,2,3,23,18,-64,0,17,-32,7,-18,-28,1,84,1,27,47,51,5,45,67,-10,-10,-16,-37,-43,16,-12,-8,18,-6,5,-21,-45,5
-14,-9,39,114,11,4,-9,33,21,6,-90,-109,-12,-37,-28,31,-48,9,33,39,4,33,35,-63,21,-5,-21,-69,-13,-25,-32,2,3,23,18,-64,0,17,-32,7,-18,-28,1,84,1,27,47,51,5,45,67,-10,-10,-16,-37,-43,16,-12,-8,18,-6,5,-21,-45,5
-14,-9,39,114,11,4,-9,33,21,6,-90,-109,-12,-37,-28,31,-48,9,33,39,4,33,35,-63,21,-5,-21,-69,-13,-25,-32,2,3,23,18,-64,0,17,-32,7,-18,-28,1,84,1,27,47,51,5,45,67,-10,-10,-16,-37,-43,16,-12,-8,18,-6,5,-21,-45,5
0,-22,88,70,21,-7,16,22,-23,6,71,-73,-23,-14,17,-27,6,-5,8,58,8,26,35,4,-5,-36,34,-30,2,16,12,-12,-6,-2,15,41,3,-13,7,-9,-7,8,-19,-7,5,22,-28,-4,22,-29,-24,-20,-14,-11,-12,24,-15,10,-54,-63,-9,16,48,-38,5
-6,-2,15,41,3,-13,7,-9,-7,8,-19,-7,5,22,-28,-4,22,-29,-24,-20,-14,-11,-12,24,-15,10,-54,-63,-9,16,48,-38,19,37,-42,36,-2,5,24,12,-1,-4,36,54,15,-8,-10,-6,0,5,-94,-105,-30,-53,-74,-17,-2,-14,37,82,7,22,14,-5,5
-6,-2,15,41,3,-13,7,-9,-7,8,-19,-7,5,22,-28,-4,22,-29,-24,-20,-14,-11,-12,24,-15,10,-54,-63,-9,16,48,-38,19,37,-42,36,-2,5,24,12,-1,-4,36,54,15,-8,-10,-6,0,5,-94,-105,-30,-53,-74,-17,-2,-14,37,82,7,22,14,-5,5
19,37,-42,36,-2,5,24,12,-1,-4,36,54,15,-8,-10,-6,0,5,-94,-105,-30,-53,-74,-17,-2,-14,37,82,7,22,14,-5,-3,39,-16,-49,6,15,14,3,11,3,69,42,2,3,16,37,-10,-5,-28,-2,6,-9,-16,-4,10,0,-11,45,-13,-31,-86,15,5
0,5,-94,-105,-30,-53,-74,-17,-2,-14,37,82,7,22,14,-5,-3,39,-16,-49,6,15,14,3,11,3,69,42,2,3,16,37,-10,-5,-28,-2,6,-9,-16,-4,10,0,-11,45,-13,-31,-86,15,-32,10,-13,-49,-16,-1,-23,30,24,1,-15,23,12,28,47,39,5
-3,39,-16,-49,6,15,14,3,11,3,69,42,2,3,16,37,-10,-5,-28,-2,6,-9,-16,-4,10,0,-11,45,-13,-31,-86,15,-32,10,-13,-49,-16,-1,-23,30,24,1,-15,23,12,28,47,39,5,19,11,29,21,21,26,9,1,36,48,55,5,-26,-31,-2,5
-10,-5,-28,-2,6,-9,-16,-4,10,0,-11,45,-13,-31,-86,15,-32,10,-13,-49,-16,-1,-23,30,24,1,-15,23,12,28,47,39,5,19,11,29,21,21,26,9,1,36,48,55,5,-26,-31,-2,-37,-41,-14,-53,-21,-22,-71,7,22,-26,-69,-65,-2,31,39,-34,5
-10,-5,-28,-2,6,-9,-16,-4,10,0,-11,45,-13,-31,-86,15,-32,10,-13,-49,-16,-1,-23,30,24,1,-15,23,12,28,47,39,5,19,11,29,21,21,26,9,1,36,48,55,5,-26,-31,-2,-37,-41,-14,-53,-21,-22,-71,7,22,-26,-69,-65,-2,31,39,-34,5
-37,-41,-14,-53,-21,-22,-71,7,22,-26,-69,-65,-2,31,39,-34,-8,3,42,92,7,7,2,23,-18,-9,-60,-80,6,-5,9,-16,0,10,23,33,-4,-13,-10,-32,-1,-10,18,21,6,19,46,-11,5,8,59,23,-11,4,-2,-2,1,17,-63,-19,3,-45,-45,10,5
-37,-41,-14,-53,-21,-22,-71,7,22,-26,-69,-65,-2,31,39,-34,-8,3,42,92,7,7,2,23,-18,-9,-60,-80,6,-5,9,-16,0,10,23,33,-4,-13,-10,-32,-1,-10,18,21,6,19,46,-11,5,8,59,23,-11,4,-2,-2,1,17,-63,-19,3,-45,-45,10,5
0,10,23,33,-4,-13,-10,-32,-1,-10,18,21,6,19,46,-11,5,8,59,23,-11,4,-2,-2,1,17,-63,-19,3,-45,-45,10,-14,8,-42,-17,-6,5,25,8,-7,-24,-5,-39,6,-24,-8,35,14,-7,59,38,-5,-6,-34,-77,-12,24,1,-44,-14,-35,-24,36,5
-14,8,-42,-17,-6,5,25,8,-7,-24,-5,-39,6,-24,-8,35,14,-7,59,38,-5,-6,-34,-77,-12,24,1,-44,-14,-35,-24,36,37,35,72,32,16,42,32,-1,-15,3,-79,81,-2,-22,-2,11,-46,-61,20,-56,-5,54,49,-23,22,-21,-2,-36,-4,-8,-57,-50,5
-14,8,-42,-17,-6,5,25,8,-7,-24,-5,-39,6,-24,-8,35,14,-7,59,38,-5,-6,-34,-77,-12,24,1,-44,-14,-35,-24,36,37,35,72,32,16,42,32,-1,-15,3,-79,81,-2,-22,-2,11,-46,-61,20,-56,-5,54,49,-23,22,-21,-2,-36,-4,-8,-57,-50,5
14,-7,59,38,-5,-6,-34,-77,-12,24,1,-44,-14,-35,-24,36,37,35,72,32,16,42,32,-1,-15,3,-79,81,-2,-22,-2,11,-46,-61,20,-56,-5,54,49,-23,22,-21,-2,-36,-4,-8,-57,-50,15,1,-15,-87,-3,-17,21,18,2,33,20,0,5,15,19,24,5
37,35,72,32,16,42,32,-1,-15,3,-79,81,-2,-22,-2,11,-46,-61,20,-56,-5,54,49,-23,22,-21,-2,-36,-4,-8,-57,-50,15,1,-15,-87,-3,-17,21,18,2,33,20,0,5,15,19,24,-14,-6,4,-27,-18,-74,-23,12,-1,24,91,127,7,53,56,4,5
15,1,-15,-87,-3,-17,21,18,2,33,20,0,5,15,19,24,-14,-6,4,-27,-18,-74,-23,12,-1,24,91,127,7,53,56,4,1,-20,25,-12,10,97,101,-64,30,-20,8,1,-9,-7,-4,55,1,17,-46,-15,-2,-37,-47,17,-4,-5,-11,-23,7,39,108,60,5
-14,-6,4,-27,-18,-74,-23,12,-1,24,91,127,7,53,56,4,1,-20,25,-12,10,97,101,-64,30,-20,8,1,-9,-7,-4,55,1,17,-46,-15,-2,-37,-47,17,-4,-5,-11,-23,7,39,108,60,-16,-12,31,-2,-11,-21,-50,-89,-33,-56,-36,22,-5,-19,-70,-48,5
-14,-6,4,-27,-18,-74,-23,12,-1,24,91,127,7,53,56,4,1,-20,25,-12,10,97,101,-64,30,-20,8,1,-9,-7,-4,55,1,17,-46,-15,-2,-37,-47,17,-4,-5,-11,-23,7,39,108,60,-16,-12,31,-2,-11,-21,-50,-89,-33,-56,-36,22,-5,-19,-70,-48,5
-14,-6,4,-27,-18,-74,-23,12,-1,24,91,127,7,53,56,4,1,-20,25,-12,10,97,101,-64,30,-20,8,1,-9,-7,-4,55,1,17,-46,-15,-2,-37,-47,17,-4,-5,-11,-23,7,39,108,60,-16,-12,31,-2,-11,-21,-50,-89,-33,-56,-36,22,-5,-19,-70,-48,5
1,-20,25,-12,10,97,101,-64,30,-20,8,1,-9,-7,-4,55,1,17,-46,-15,-2,-37,-47,17,-4,-5,-11,-23,7,39,108,60,-16,-12,31,-2,-11,-21,-50,-89,-33,-56,-36,22,-5,-19,-70,-48,27,66,42,21,12,14,24,8,-22,-24,-43,2,-3,-10,0,2,5
27,66,42,21,12,14,24,8,-22,-24,-43,2,-3,-10,0,2,-1,-12,-3,8,1,-42,-6,38,18,75,43,57,5,20,19,-14,8,-42,18,-67,6,13,0,3,11,13,-54,20,-10,-17,-62,-11,15,-16,-21,54,13,7,-2,3,-26,-7,-22,-100,-17,-30,-37,-16,5
27,66,42,21,12,14,24,8,-22,-24,-43,2,-3,-10,0,2,-1,-12,-3,8,1,-42,-6,38,18,75,43,57,5,20,19,-14,8,-42,18,-67,6,13,0,3,11,13,-54,20,-10,-17,-62,-11,15,-16,-21,54,13,7,-2,3,-26,-7,-22,-100,-17,-30,-37,-16,5
15,-16,-21,54,13,7,-2,3,-26,-7,-22,-100,-17,-30,-37,-16,-7,58,-38,-9,-7,-13,-69,-44,7,-75,29,29,11,36,116,61,-18,-11,-50,24,-4,-9,4,48,3,36,66,-14,-11,-55,-78,-44,11,10,-18,-3,6,29,35,-18,-2,-27,-35,-27,2,5,-36,-31,5
-18,-11,-50,24,-4,-9,4,48,3,36,66,-14,-11,-55,-78,-44,11,10,-18,-3,6,29,35,-18,-2,-27,-35,-27,2,5,-36,-31,-6,30,-30,-37,-19,-23,-14,-16,10,-67,-2,-5,-8,-42,-71,22,-49,-10,78,20,-10,29,7,-22,28,0,32,-22,1,-28,-32,-16,5
-18,-11,-50,24,-4,-9,4,48,3,36,66,-14,-11,-55,-78,-44,11,10,-18,-3,6,29,35,-18,-2,-27,-35,-27,2,5,-36,-31,-6,30,-30,-37,-19,-23,-14,-16,10,-67,-2,-5,-8,-42,-71,22,-49,-10,78,20,-10,29,7,-22,28,0,32,-22,1,-28,-32,-16,5
11,10,-18,-3,6,29,35,-18,-2,-27,-35,-27,2,5,-36,-31,-6,30,-30,-37,-19,-23,-14,-16,10,-67,-2,-5,-8,-42,-71,22,-49,-10,78,20,-10,29,7,-22,28,0,32,-22,1,-28,-32,-16,22,56,-53,22,10,-27,-35,34,-32,-66,2,-41,-13,29,32,-7,5
-49,-10,78,20,-10,29,7,-22,28,0,32,-22,1,-28,-32,-16,22,56,-53,22,10,-27,-35,34,-32,-66,2,-41,-13,29,32,-7,-1,-28,14,30,-6,-14,-1,3,-5,66,63,-83,-7,-3,-23,1,11,-75,-34,-3,11,4,-17,8,9,25,-106,13,-2,-32,3,-15,5
22,56,-53,22,10,-27,-35,34,-32,-66,2,-41,-13,29,32,-7,-1,-28,14,30,-6,-14,-1,3,-5,66,63,-83,-7,-3,-23,1,11,-75,-34,-3,11,4,-17,8,9,25,-106,13,-2,-32,3,-15,-20,1,58,-5,-4,10,16,21,27,-24,-87,-14,-11,-16,66,-7,5
-1,-28,14,30,-6,-14,-1,3,-5,66,63,-83,-7,-3,-23,1,11,-75,-34,-3,11,4,-17,8,9,25,-106,13,-2,-32,3,-15,-20,1,58,-5,-4,10,16,21,27,-24,-87,-14,-11,-16,66,-7,10,41,74,-47,-4,14,33,57,-1,-25,-28,22,8,-19,-108,-28,5
11,-75,-34,-3,11,4,-17,8,9,25,-106,13,-2,-32,3,-15,-20,1,58,-5,-4,10,16,21,27,-24,-87,-14,-11,-16,66,-7,10,41,74,-47,-4,14,33,57,-1,-25,-28,22,8,-19,-108,-28,-13,-35,-112,-28,14,36,27,-12,-19,38,25,8,-10,-16,-79,8,5
11,-75,-34,-3,11,4,-17,8,9,25,-106,13,-2,-32,3,-15,-20,1,58,-5,-4,10,16,21,27,-24,-87,-14,-11,-16,66,-7,10,41,74,-47,-4,14,33,57,-1,-25,-28,22,8,-19,-108,-28,-13,-35,-112,-28,14,36,27,-12,-19,38,25,8,-10,-16,-79,8,5
-13,-35,-112,-28,14,36,27,-12,-19,38,25,8,-10,-16,-79,8,-12,-30,-42,8,-5,-13,9,36,21,25,-29,41,0,30,33,-44,26,13,11,-45,-6,-66,-83,16,-14,-8,12,31,-1,18,1,-28,18,13,105,37,13,6,-1,-8,-23,-16,-9,-41,2,16,53,36,5
-13,-35,-112,-28,14,36,27,-12,-19,38,25,8,-10,-16,-79,8,-12,-30,-42,8,-5,-13,9,36,21,25,-29,41,0,30,33,-44,26,13,11,-45,-6,-66,-83,16,-14,-8,12,31,-1,18,1,-28,18,13,105,37,13,6,-1,-8,-23,-16,-9,-41,2,16,53,36,5
26,13,11,-45,-6,-66,-83,16,-14,-8,12,31,-1,18,1,-28,18,13,105,37,13,6,-1,-8,-23,-16,-9,-41,2,16,53,36,5,18,76,84,6,2,44,23,-17,-47,-60,-72,-6,-36,-45,-56,-5,-3,-13,6,-6,1,-18,-4,0,67,21,25,4,-16,-4,27,5
18,13,105,37,13,6,-1,-8,-23,-16,-9,-41,2,16,53,36,5,18,76,84,6,2,44,23,-17,-47,-60,-72,-6,-36,-45,-56,-5,-3,-13,6,-6,1,-18,-4,0,67,21,25,4,-16,-4,27,-23,-45,1,-5,5,78,79,-11,11,48,61,23,3,-2,52,56,5
5,18,76,84,6,2,44,23,-17,-47,-60,-72,-6,-36,-45,-56,-5,-3,-13,6,-6,1,-18,-4,0,67,21,25,4,-16,-4,27,-23,-45,1,-5,5,78,79,-11,11,48,61,23,3,-2,52,56,-6,-71,-13,65,-5,-38,-57,-26,-9,-42,-38,-51,5,43,-23,-29,5
-23,-45,1,-5,5,78,79,-11,11,48,61,23,3,-2,52,56,-6,-71,-13,65,-5,-38,-57,-26,-9,-42,-38,-51,5,43,-23,-29,-12,-3,19,-12,-14,-51,8,3,22,11,-44,-18,0,89,9,-27,-9,-10,-37,0,-6,11,37,-1,13,-9,-24,-13,-8,-85,-95,17,5
-6,-71,-13,65,-5,-38,-57,-26,-9,-42,-38,-51,5,43,-23,-29,-12,-3,19,-12,-14,-51,8,3,22,11,-44,-18,0,89,9,-27,-9,-10,-37,0,-6,11,37,-1,13,-9,-24,-13,-8,-85,-95,17,-25,34,-22,-10,-1,59,77,-29,1,-14,-11,12,5,-11,-72,-26,5
-12,-3,19,-12,-14,-51,8,3,22,11,-44,-18,0,89,9,-27,-9,-10,-37,0,-6,11,37,-1,13,-9,-24,-13,-8,-85,-95,17,-25,34,-22,-10,-1,59,77,-29,1,-14,-11,12,5,-11,-72,-26,14,-7,25,-6,4,2,19,20,-24,-8,-36,-54,-1,-1,-48,5,5
-9,-10,-37,0,-6,11,37,-1,13,-9,-24,-13,-8,-85,-95,17,-25,34,-22,-10,-1,59,77,-29,1,-14,-11,12,5,-11,-72,-26,14,-7,25,-6,4,2,19,20,-24,-8,-36,-54,-1,-1,-48,5,17,38,67,24,4,36,67,6,-6,-79,-23,7,-3,-7,33,12,5
14,-7,25,-6,4,2,19,20,-24,-8,-36,-54,-1,-1,-48,5,17,38,67,24,4,36,67,6,-6,-79,-23,7,-3,-7,33,12,5,0,60,-5,5,10,-54,-10,-1,98,-8,31,11,20,51,12,7,-40,-40,-10,3,-23,-44,23,-16,-20,127,1,-12,-8,37,-7,5
17,38,67,24,4,36,67,6,-6,-79,-23,7,-3,-7,33,12,5,0,60,-5,5,10,-54,-10,-1,98,-8,31,11,20,51,12,7,-40,-40,-10,3,-23,-44,23,-16,-20,127,1,-12,-8,37,-7,2,-7,-64,13,-11,-57,-103,10,37,54,102,4,2,2,64,18,5
5,0,60,-5,5,10,-54,-10,-1,98,-8,31,11,20,51,12,7,-40,-40,-10,3,-23,-44,23,-16,-20,127,1,-12,-8,37,-7,2,-7,-64,13,-11,-57,-103,10,37,54,102,4,2,2,64,18,-11,-39,-66,9,0,-35,-56,27,-26,-2,-16,-20,3,30,41,-37,5
7,-40,-40,-10,3,-23,-44,23,-16,-20,127,1,-12,-8,37,-7,2,-7,-64,13,-11,-57,-103,10,37,54,102,4,2,2,64,18,-11,-39,-66,9,0,-35,-56,27,-26,-2,-16,-20,3,30,41,-37,1,14,58,-35,-6,29,14,-90,-8,-36,-73,54,8,62,73,12,5
1,14,58,-35,-6,29,14,-90,-8,-36,-73,54,8,62,73,12,25,54,-40,-43,-1,-47,-93,0,-15,20,63,25,6,-3,-37,26,-6,-25,-30,-53,-9,-6,-18,2,9,7,23,24,0,31,120,-11,32,0,13,23,6,-10,-32,0,-33,-6,-99,-44,-7,-35,-47,-2,5
25,54,-40,-43,-1,-47,-93,0,-15,20,63,25,6,-3,-37,26,-6,-25,-30,-53,-9,-6,-18,2,9,7,23,24,0,31,120,-11,32,0,13,23,6,-10,-32,0,-33,-6,-99,-44,-7,-35,-47,-2,-11,11,-6,62,-1,8,2,-22,7,12,81,21,3,5,-22,15,5
25,54,-40,-43,-1,-47,-93,0,-15,20,63,25,6,-3,-37,26,-6,-25,-30,-53,-9,-6,-18,2,9,7,23,24,0,31,120,-11,32,0,13,23,6,-10,-32,0,-33,-6,-99,-44,-7,-35,-47,-2,-11,11,-6,62,-1,8,2,-22,7,12,81,21,3,5,-22,15,5
32,0,13,23,6,-10,-32,0,-33,-6,-99,-44,-7,-35,-47,-2,-11,11,-6,62,-1,8,2,-22,7,12,81,21,3,5,-22,15,-13,19,-67,-70,-29,-40,-2,-22,-2,-5,11,-19,0,-10,3,6,-16,-16,-40,-7,7,24,18,1,8,-23,-21,-103,-11,-43,-71,-11,5
-11,11,-6,62,-1,8,2,-22,7,12,81,21,3,5,-22,15,-13,19,-67,-70,-29,-40,-2,-22,-2,-5,11,-19,0,-10,3,6,-16,-16,-40,-7,7,24,18,1,8,-23,-21,-103,-11,-43,-71,-11,3,-11,77,115,-5,18,55,7,21,31,-21,36,9,-18,32,51,5
-13,19,-67,-70,-29,-40,-2,-22,-2,-5,11,-19,0,-10,3,6,-16,-16,-40,-7,7,24,18,1,8,-23,-21,-103,-11,-43,-71,-11,3,-11,77,115,-5,18,55,7,21,31,-21,36,9,-18,32,51,0,27,66,10,0,-34,-21,-47,-13,-24,-16,-45,0,34,33,7,5
3,-11,77,115,-5,18,55,7,21,31,-21,36,9,-18,32,51,0,27,66,10,0,-34,-21,-47,-13,-24,-16,-45,0,34,33,7,6,4,10,-46,9,-1,71,44,12,7,-26,36,-20,-43,-125,-41,11,-9,38,30,21,81,119,48,-19,9,-12,-2,-11,-28,-35,-28,5
0,27,66,10,0,-34,-21,-47,-13,-24,-16,-45,0,34,33,7,6,4,10,-46,9,-1,71,44,12,7,-26,36,-20,-43,-125,-41,11,-9,38,30,21,81,119,48,-19,9,-12,-2,-11,-28,-35,-28,9,3,71,2,4,-39,-55,-1,2,37,51,36,5,7,-17,-5,5
6,4,10,-46,9,-1,71,44,12,7,-26,36,-20,-43,-125,-41,11,-9,38,30,21,81,119,48,-19,9,-12,-2,-11,-28,-35,-28,9,3,71,2,4,-39,-55,-1,2,37,51,36,5,7,-17,-5,-37,-25,-105,-40,-8,-4,-5,-28,-11,-34,105,14,-5,22,13,-22,5
11,-9,38,30,21,81,119,48,-19,9,-12,-2,-11,-28,-35,-28,9,3,71,2,4,-39,-55,-1,2,37,51,36,5,7,-17,-5,-37,-25,-105,-40,-8,-4,-5,-28,-11,-34,105,14,-5,22,13,-22,8,-41,-72,0,4,20,-6,5,-4,20,56,19,0,-7,20,-16,5
9,3,71,2,4,-39,-55,-1,2,37,51,36,5,7,-17,-5,-37,-25,-105,-40,-8,-4,-5,-28,-11,-34,105,14,-5,22,13,-22,8,-41,-72,0,4,20,-6,5,-4,20,56,19,0,-7,20,-16,18,10,-34,-65,-21,-33,-65,49,-27,7,-19,38,11,37,30,-7,5
8,-41,-72,0,4,20,-6,5,-4,20,56,19,0,-7,20,-16,18,10,-34,-65,-21,-33,-65,49,-27,7,-19,38,11,37,30,-7,5,-30,-71,-5,2,1,-14,5,18,24,101,37,4,-29,-31,11,-2,9,34,7,-1,54,79,-6,-10,-66,-48,22,-7,-2,5,-35,5
18,10,-34,-65,-21,-33,-65,49,-27,7,-19,38,11,37,30,-7,5,-30,-71,-5,2,1,-14,5,18,24,101,37,4,-29,-31,11,-2,9,34,7,-1,54,79,-6,-10,-66,-48,22,-7,-2,5,-35,4,35,45,64,2,-61,-53,-11,1,-41,-68,4,5,87,83,15,5
5,-30,-71,-5,2,1,-14,5,18,24,101,37,4,-29,-31,11,-2,9,34,7,-1,54,79,-6,-10,-66,-48,22,-7,-2,5,-35,4,35,45,64,2,-61,-53,-11,1,-41,-68,4,5,87,83,15,-19,34,-28,-61,-9,-39,-62,-13,21,-46,59,-8,-3,-8,5,-6,5
-2,9,34,7,-1,54,79,-6,-10,-66,-48,22,-7,-2,5,-35,4,35,45,64,2,-61,-53,-11,1,-41,-68,4,5,87,83,15,-19,34,-28,-61,-9,-39,-62,-13,21,-46,59,-8,-3,-8,5,-6,-34,11,34,4,2,-53,-52,14,12,-10,4,50,6,45,61,8,5
4,35,45,64,2,-61,-53,-11,1,-41,-68,4,5,87,83,15,-19,34,-28,-61,-9,-39,-62,-13,21,-46,59,-8,-3,-8,5,-6,-34,11,34,4,2,-53,-52,14,12,-10,4,50,6,45,61,8,18,-18,-50,-16,-7,-78,-107,21,-29,0,-46,11,-12,58,66,-3,5
-19,34,-28,-61,-9,-39,-62,-13,21,-46,59,-8,-3,-8,5,-6,-34,11,34,4,2,-53,-52,14,12,-10,4,50,6,45,61,8,18,-18,-50,-16,-7,-78,-107,21,-29,0,-46,11,-12,58,66,-3,15,-21,-45,-23,1,10,7,25,-29,3,-40,17,-2,-28,-39,-17,5
-34,11,34,4,2,-53,-52,14,12,-10,4,50,6,45,61,8,18,-18,-50,-16,-7,-78,-107,21,-29,0,-46,11,-12,58,66,-3,15,-21,-45,-23,1,10,7,25,-29,3,-40,17,-2,-28,-39,-17,-6,-9,65,-12,10,6,11,-23,0,60,14,-25,-14,-36,-43,47,5
15,-21,-45,-23,1,10,7,25,-29,3,-40,17,-2,-28,-39,-17,-6,-9,65,-12,10,6,11,-23,0,60,14,-25,-14,-36,-43,47,17,18,-51,4,2,36,15,-39,-22,-64,-49,-90,-18,-17,46,-27,14,-36,12,97,14,11,18,15,2,25,-58,-75,-12,-46,-57,-37,5
-6,-9,65,-12,10,6,11,-23,0,60,14,-25,-14,-36,-43,47,17,18,-51,4,2,36,15,-39,-22,-64,-49,-90,-18,-17,46,-27,14,-36,12,97,14,11,18,15,2,25,-58,-75,-12,-46,-57,-37,5,43,80,22,-4,-9,-10,33,23,23,-15,1,7,21,-18,21,5
17,18,-51,4,2,36,15,-39,-22,-64,-49,-90,-18,-17,46,-27,14,-36,12,97,14,11,18,15,2,25,-58,-75,-12,-46,-57,-37,5,43,80,22,-4,-9,-10,33,23,23,-15,1,7,21,-18,21,-24,-15,-10,64,9,10,-45,-34,6,-19,-21,-80,-7,-11,42,35,5
5,43,80,22,-4,-9,-10,33,23,23,-15,1,7,21,-18,21,-24,-15,-10,64,9,10,-45,-34,6,-19,-21,-80,-7,-11,42,35,-21,-28,11,-3,-3,-7,-9,17,1,13,-38,-26,5,-12,-35,1,22,19,91,-3,-13,-38,16,47,-23,23,-29,65,17,30,-5,59,5
5,43,80,22,-4,-9,-10,33,23,23,-15,1,7,21,-18,21,-24,-15,-10,64,9,10,-45,-34,6,-19,-21,-80,-7,-11,42,35,-21,-28,11,-3,-3,-7,-9,17,1,13,-38,-26,5,-12,-35,1,22,19,91,-3,-13,-38,16,47,-23,23,-29,65,17,30,-5,59,5
-21,-28,11,-3,-3,-7,-9,17,1,13,-38,-26,5,-12,-35,1,22,19,91,-3,-13,-38,16,47,-23,23,-29,65,17,30,-5,59,24,-11,16,-49,-2,59,62,-18,-22,5,27,21,-2,-24,-32,-7,-6,-22,-87,-41,-2,9,26,5,19,54,82,69,5,-29,-58,11,5
22,19,91,-3,-13,-38,16,47,-23,23,-29,65,17,30,-5,59,24,-11,16,-49,-2,59,62,-18,-22,5,27,21,-2,-24,-32,-7,-6,-22,-87,-41,-2,9,26,5,19,54,82,69,5,-29,-58,11,-5,-34,-30,-27,-1,31,45,-15,17,65,82,26,16,-2,6,20,5
24,-11,16,-49,-2,59,62,-18,-22,5,27,21,-2,-24,-32,-7,-6,-22,-87,-41,-2,9,26,5,19,54,82,69,5,-29,-58,11,-5,-34,-30,-27,-1,31,45,-15,17,65,82,26,16,-2,6,20,-12,5,-116,-5,-9,-12,-1,-10,9,-13,6,-38,-4,-27,-19,-31,5
-6,-22,-87,-41,-2,9,26,5,19,54,82,69,5,-29,-58,11,-5,-34,-30,-27,-1,31,45,-15,17,65,82,26,16,-2,6,20,-12,5,-116,-5,-9,-12,-1,-10,9,-13,6,-38,-4,-27,-19,-31,-3,-7,20,13,0,21,15,-6,7,-5,-33,11,2,26,-8,9,5
-5,-34,-30,-27,-1,31,45,-15,17,65,82,26,16,-2,6,20,-12,5,-116,-5,-9,-12,-1,-10,9,-13,6,-38,-4,-27,-19,-31,-3,-7,20,13,0,21,15,-6,7,-5,-33,11,2,26,-8,9,26,33,0,-99,-2,24,98,64,14,20,27,64,-5,-6,-40,-68,5
-12,5,-116,-5,-9,-12,-1,-10,9,-13,6,-38,-4,-27,-19,-31,-3,-7,20,13,0,21,15,-6,7,-5,-33,11,2,26,-8,9,26,33,0,-99,-2,24,98,64,14,20,27,64,-5,-6,-40,-68,-13,-2,-11,49,19,57,2,63,-3,12,68,-40,-9,-8,-30,-40,5
26,33,0,-99,-2,24,98,64,14,20,27,64,-5,-6,-40,-68,-13,-2,-11,49,19,57,2,63,-3,12,68,-40,-9,-8,-30,-40,0,-24,22,-31,-11,-87,-99,0,-2,-50,-21,12,6,80,29,-67,-17,-17,6,-31,-16,-17,61,7,20,27,-41,20,9,13,20,15,5
-13,-2,-11,49,19,57,2,63,-3,12,68,-40,-9,-8,-30,-40,0,-24,22,-31,-11,-87,-99,0,-2,-50,-21,12,6,80,29,-67,-17,-17,6,-31,-16,-17,61,7,20,27,-41,20,9,13,20,15,-6,8,46,48,8,0,-36,-35,6,-7,-10,-45,-11,-21,-13,22,5
0,-24,22,-31,-11,-87,-99,0,-2,-50,-21,12,6,80,29,-67,-17,-17,6,-31,-16,-17,61,7,20,27,-41,20,9,13,20,15,-6,8,46,48,8,0,-36,-35,6,-7,-10,-45,-11,-21,-13,22,4,-6,-9,29,-14,-20,-43,-39,-20,-31,-111,-47,1,-12,3,18,5
-17,-17,6,-31,-16,-17,61,7,20,27,-41,20,9,13,20,15,-6,8,46,48,8,0,-36,-35,6,-7,-10,-45,-11,-21,-13,22,4,-6,-9,29,-14,-20,-43,-39,-20,-31,-111,-47,1,-12,3,18,3,9,-19,80,3,17,11,-18,-4,26,-12,5,-5,-33,-68,23,5
4,-6,-9,29,-14,-20,-43,-39,-20,-31,-111,-47,1,-12,3,18,3,9,-19,80,3,17,11,-18,-4,26,-12,5,-5,-33,-68,23,-8,-2,-20,-7,-7,3,-19,50,10,-15,38,23,-3,-25,-45,19,2,-11,29,-111,-11,-22,-36,1,4,21,-13,61,8,19,-69,-57,5
3,9,-19,80,3,17,11,-18,-4,26,-12,5,-5,-33,-68,23,-8,-2,-20,-7,-7,3,-19,50,10,-15,38,23,-3,-25,-45,19,2,-11,29,-111,-11,-22,-36,1,4,21,-13,61,8,19,-69,-57,-12,19,94,-10,7,13,25,-1,-11,-33,-59,-48,-27,-3,27,-55,5
-8,-2,-20,-7,-7,3,-19,50,10,-15,38,23,-3,-25,-45,19,2,-11,29,-111,-11,-22,-36,1,4,21,-13,61,8,19,-69,-57,-12,19,94,-10,7,13,25,-1,-11,-33,-59,-48,-27,-3,27,-55,-1,12,76,79,5,38,17,-29,-8,16,-15,-77,-14,-32,2,15,5
-8,-2,-20,-7,-7,3,-19,50,10,-15,38,23,-3,-25,-45,19,2,-11,29,-111,-11,-22,-36,1,4,21,-13,61,8,19,-69,-57,-12,19,94,-10,7,13,25,-1,-11,-33,-59,-48,-27,-3,27,-55,-1,12,76,79,5,38,17,-29,-8,16,-15,-77,-14,-32,2,15,5
-12,19,94,-10,7,13,25,-1,-11,-33,-59,-48,-27,-3,27,-55,-1,12,76,79,5,38,17,-29,-8,16,-15,-77,-14,-32,2,15,14,16,-37,-24,-15,-63,-3,32,-23,-19,-26,24,0,-2,20,-28,5,-26,-2,43,10,40,20,22,-5,-5,45,6,15,9,124,64,5
14,16,-37,-24,-15,-63,-3,32,-23,-19,-26,24,0,-2,20,-28,5,-26,-2,43,10,40,20,22,-5,-5,45,6,15,9,124,64,2,-3,-54,4,-2,-24,-115,-80,-7,39,94,2,-13,9,54,58,9,-22,-41,-42,1,-6,-37,-34,2,12,111,80,5,-6,-20,29,5
14,16,-37,-24,-15,-63,-3,32,-23,-19,-26,24,0,-2,20,-28,5,-26,-2,43,10,40,20,22,-5,-5,45,6,15,9,124,64,2,-3,-54,4,-2,-24,-115,-80,-7,39,94,2,-13,9,54,58,9,-22,-41,-42,1,-6,-37,-34,2,12,111,80,5,-6,-20,29,5
2,-3,-54,4,-2,-24,-115,-80,-7,39,94,2,-13,9,54,58,9,-22,-41,-42,1,-6,-37,-34,2,12,111,80,5,-6,-20,29,3,-3,-30,-48,-5,-5,-19,-15,13,-7,-5,36,5,-15,-40,8,-21,-24,-45,-56,-6,-9,17,3,7,-32,-10,-2,10,33,17,21,5
2,-3,-54,4,-2,-24,-115,-80,-7,39,94,2,-13,9,54,58,9,-22,-41,-42,1,-6,-37,-34,2,12,111,80,5,-6,-20,29,3,-3,-30,-48,-5,-5,-19,-15,13,-7,-5,36,5,-15,-40,8,-21,-24,-45,-56,-6,-9,17,3,7,-32,-10,-2,10,33,17,21,5
3,-3,-30,-48,-5,-5,-19,-15,13,-7,-5,36,5,-15,-40,8,-21,-24,-45,-56,-6,-9,17,3,7,-32,-10,-2,10,33,17,21,0,-1,14,-57,-3,26,28,4,0,25,-27,18,-15,-33,-16,-32,-3,37,59,51,3,-10,-19,0,-4,-8,-69,-38,-2,-39,-64,26,5
0,-1,14,-57,-3,26,28,4,0,25,-27,18,-15,-33,-16,-32,-3,37,59,51,3,-10,-19,0,-4,-8,-69,-38,-2,-39,-64,26,-23,-71,-128,-11,-3,-1,-15,-38,19,18,78,61,8,-56,-27,-53,-3,-1,-20,-101,-6,76,74,-11,-2,-22,27,110,-9,-40,41,10,5
-3,37,59,51,3,-10,-19,0,-4,-8,-69,-38,-2,-39,-64,26,-23,-71,-128,-11,-3,-1,-15,-38,19,18,78,61,8,-56,-27,-53,-3,-1,-20,-101,-6,76,74,-11,-2,-22,27,110,-9,-40,41,10,-18,5,-10,-30,7,19,-10,-8,14,33,31,-36,4,60,22,30,5
-3,37,59,51,3,-10,-19,0,-4,-8,-69,-38,-2,-39,-64,26,-23,-71,-128,-11,-3,-1,-15,-38,19,18,78,61,8,-56,-27,-53,-3,-1,-20,-101,-6,76,74,-11,-2,-22,27,110,-9,-40,41,10,-18,5,-10,-30,7,19,-10,-8,14,33,31,-36,4,60,22,30,5
-18,5,-10,-30,7,19,-10,-8,14,33,31,-36,4,60,22,30,-1,-7,-58,22,7,-19,-37,-13,8,33,66,33,-4,9,9,-4,-6,28,-58,-8,-4,-26,19,-15,-7,20,-5,43,11,16,60,17,-26,-73,19,-8,-5,-14,-61,-3,-4,54,-49,-52,-1,18,41,-11,5
-1,-7,-58,22,7,-19,-37,-13,8,33,66,33,-4,9,9,-4,-6,28,-58,-8,-4,-26,19,-15,-7,20,-5,43,11,16,60,17,-26,-73,19,-8,-5,-14,-61,-3,-4,54,-49,-52,-1,18,41,-11,10,12,12,87,11,47,27,0,1,-18,57,-39,1,11,-12,9,5
-6,28,-58,-8,-4,-26,19,-15,-7,20,-5,43,11,16,60,17,-26,-73,19,-8,-5,-14,-61,-3,-4,54,-49,-52,-1,18,41,-11,10,12,12,87,11,47,27,0,1,-18,57,-39,1,11,-12,9,17,58,-11,-43,-7,-11,-1,11,-8,-22,-49,-12,-8,-5,42,-23,5
-26,-73,19,-8,-5,-14,-61,-3,-4,54,-49,-52,-1,18,41,-11,10,12,12,87,11,47,27,0,1,-18,57,-39,1,11,-12,9,17,58,-11,-43,-7,-11,-1,11,-8,-22,-49,-12,-8,-5,42,-23,11,3,-43,-33,-15,-33,-28,-26,0,9,18,18,5,17,0,69,5
10,12,12,87,11,47,27,0,1,-18,57,-39,1,11,-12,9,17,58,-11,-43,-7,-11,-1,11,-8,-22,-49,-12,-8,-5,42,-23,11,3,-43,-33,-15,-33,-28,-26,0,9,18,18,5,17,0,69,-9,-12,60,76,8,-43,15,-44,11,-39,-51,-59,-4,-4,-90,7,5
17,58,-11,-43,-7,-11,-1,11,-8,-22,-49,-12,-8,-5,42,-23,11,3,-43,-33,-15,-33,-28,-26,0,9,18,18,5,17,0,69,-9,-12,60,76,8,-43,15,-44,11,-39,-51,-59,-4,-4,-90,7,-2,11,53,54,1,33,44,82,20,-20,-46,-18,-2,0,-42,-46,5
11,3,-43,-33,-15,-33,-28,-26,0,9,18,18,5,17,0,69,-9,-12,60,76,8,-43,15,-44,11,-39,-51,-59,-4,-4,-90,7,-2,11,53,54,1,33,44,82,20,-20,-46,-18,-2,0,-42,-46,-38,-3,-39,24,0,0,47,7,10,-24,-70,1,-1,-19,-34,-15,5
-2,11,53,54,1,33,44,82,20,-20,-46,-18,-2,0,-42,-46,-38,-3,-39,24,0,0,47,7,10,-24,-70,1,-1,-19,-34,-15,9,24,81,-23,5,-20,-19,17,-28,-4,66,15,-12,-33,15,44,17,18,-21,-8,4,32,9,-3,12,39,79,-17,-3,-7,-2,-11,5
-38,-3,-39,24,0,0,47,7,10,-24,-70,1,-1,-19,-34,-15,9,24,81,-23,5,-20,-19,17,-28,-4,66,15,-12,-33,15,44,17,18,-21,-8,4,32,9,-3,12,39,79,-17,-3,-7,-2,-11,-23,-75,-55,-29,4,-1,-27,-21,-10,7,-7,-7,4,-3,-15,-19,5
9,24,81,-23,5,-20,-19,17,-28,-4,66,15,-12,-33,15,44,17,18,-21,-8,4,32,9,-3,12,39,79,-17,-3,-7,-2,-11,-23,-75,-55,-29,4,-1,-27,-21,-10,7,-7,-7,4,-3,-15,-19,7,-5,64,50,-5,12,-41,-24,-4,-20,-36,-2,6,33,54,16,5
-23,-75,-55,-29,4,-1,-27,-21,-10,7,-7,-7,4,-3,-15,-19,7,-5,64,50,-5,12,-41,-24,-4,-20,-36,-2,6,33,54,16,-5,23,65,-7,7,-16,-29,-16,-12,-43,-101,-36,-7,-20,-33,-11,21,29,25,34,-6,26,30,21,4,-22,-18,0,11,8,28,7,5
7,-5,64,50,-5,12,-41,-24,-4,-20,-36,-2,6,33,54,16,-5,23,65,-7,7,-16,-29,-16,-12,-43,-101,-36,-7,-20,-33,-11,21,29,25,34,-6,26,30,21,4,-22,-18,0,11,8,28,7,-1,-12,54,23,-6,-18,11,37,-16,-20,-82,5,1,-24,-94,-51,5
-5,23,65,-7,7,-16,-29,-16,-12,-43,-101,-36,-7,-20,-33,-11,21,29,25,34,-6,26,30,21,4,-22,-18,0,11,8,28,7,-1,-12,54,23,-6,-18,11,37,-16,-20,-82,5,1,-24,-94,-51,-7,18,-2,-60,-7,11,113,116,14,-39,-44,37,11,-2,-28,-43,5
21,29,25,34,-6,26,30,21,4,-22,-18,0,11,8,28,7,-1,-12,54,23,-6,-18,11,37,-16,-20,-82,5,1,-24,-94,-51,-7,18,-2,-60,-7,11,113,116,14,-39,-44,37,11,-2,-28,-43,-18,13,91,6,-23,-34,-59,-8,17,3,24,-4,11,33,-7,10,5
-1,-12,54,23,-6,-18,11,37,-16,-20,-82,5,1,-24,-94,-51,-7,18,-2,-60,-7,11,113,116,14,-39,-44,37,11,-2,-28,-43,-18,13,91,6,-23,-34,-59,-8,17,3,24,-4,11,33,-7,10,4,-32,-35,-21,-9,-18,-47,-4,-1,31,85,-9,-12,14,-13,-7,5
-18,13,91,6,-23,-34,-59,-8,17,3,24,-4,11,33,-7,10,4,-32,-35,-21,-9,-18,-47,-4,-1,31,85,-9,-12,14,-13,-7,-4,-35,-99,21,15,1,27,-10,4,-36,12,-35,-4,-3,6,8,-19,33,-4,18,-15,1,-37,-29,-14,-11,46,-35,-5,-15,27,13,5
4,-32,-35,-21,-9,-18,-47,-4,-1,31,85,-9,-12,14,-13,-7,-4,-35,-99,21,15,1,27,-10,4,-36,12,-35,-4,-3,6,8,-19,33,-4,18,-15,1,-37,-29,-14,-11,46,-35,-5,-15,27,13,25,43,-15,24,6,17,5,-17,-8,-17,-53,23,3,10,28,-13,5
-4,-35,-99,21,15,1,27,-10,4,-36,12,-35,-4,-3,6,8,-19,33,-4,18,-15,1,-37,-29,-14,-11,46,-35,-5,-15,27,13,25,43,-15,24,6,17,5,-17,-8,-17,-53,23,3,10,28,-13,-1,-64,-19,3,6,-5,52,10,2,-1,-7,14,0,-1,-44,25,5
-19,33,-4,18,-15,1,-37,-29,-14,-11,46,-35,-5,-15,27,13,25,43,-15,24,6,17,5,-17,-8,-17,-53,23,3,10,28,-13,-1,-64,-19,3,6,-5,52,10,2,-1,-7,14,0,-1,-44,25,4,24,-34,-46,-14,-29,-12,-19,2,-14,-51,-16,2,17,29,-29,5
25,43,-15,24,6,17,5,-17,-8,-17,-53,23,3,10,28,-13,-1,-64,-19,3,6,-5,52,10,2,-1,-7,14,0,-1,-44,25,4,24,-34,-46,-14,-29,-12,-19,2,-14,-51,-16,2,17,29,-29,3,-20,5,-8,3,-25,-52,-3,-8,18,16,2,-3,60,45,-13,5
4,24,-34,-46,-14,-29,-12,-19,2,-14,-51,-16,2,17,29,-29,3,-20,5,-8,3,-25,-52,-3,-8,18,16,2,-3,60,45,-13,5,-1,58,1,1,16,-10,-24,-21,-6,18,10,-4,-14,19,14,42,51,-35,0,-4,-20,-63,-19,-61,-44,-17,14,-4,-24,8,-38,5
3,-20,5,-8,3,-25,-52,-3,-8,18,16,2,-3,60,45,-13,5,-1,58,1,1,16,-10,-24,-21,-6,18,10,-4,-14,19,14,42,51,-35,0,-4,-20,-63,-19,-61,-44,-17,14,-4,-24,8,-38,9,2,29,-13,2,0,-40,10,4,7,-5,15,-2,10,20,27,5
5,-1,58,1,1,16,-10,-24,-21,-6,18,10,-4,-14,19,14,42,51,-35,0,-4,-20,-63,-19,-61,-44,-17,14,-4,-24,8,-38,9,2,29,-13,2,0,-40,10,4,7,-5,15,-2,10,20,27,2,16,38,40,0,10,5,-2,26,55,10,-53,4,-25,-32,4,5
42,51,-35,0,-4,-20,-63,-19,-61,-44,-17,14,-4,-24,8,-38,9,2,29,-13,2,0,-40,10,4,7,-5,15,-2,10,20,27,2,16,38,40,0,10,5,-2,26,55,10,-53,4,-25,-32,4,-11,-35,2,-9,-3,-2,14,-25,5,-21,25,-38,-1,-12,0,6,5
9,2,29,-13,2,0,-40,10,4,7,-5,15,-2,10,20,27,2,16,38,40,0,10,5,-2,26,55,10,-53,4,-25,-32,4,-11,-35,2,-9,-3,-2,14,-25,5,-21,25,-38,-1,-12,0,6,-4,18,-17,3,0,25,18,54,-5,-19,-73,10,-2,-31,15,-42,5
-11,-35,2,-9,-3,-2,14,-25,5,-21,25,-38,-1,-12,0,6,-4,18,-17,3,0,25,18,54,-5,-19,-73,10,-2,-31,15,-42,-10,-23,-29,-12,5,34,52,9,18,14,19,0,1,-2,-21,2,-11,-14,-14,-3,-3,8,21,-9,5,2,6,-25,-6,-22,-19,29,5
-4,18,-17,3,0,25,18,54,-5,-19,-73,10,-2,-31,15,-42,-10,-23,-29,-12,5,34,52,9,18,14,19,0,1,-2,-21,2,-11,-14,-14,-3,-3,8,21,-9,5,2,6,-25,-6,-22,-19,29,-16,6,55,30,10,29,24,-31,-7,-12,-52,-22,-9,-18,-91,-3,5
-10,-23,-29,-12,5,34,52,9,18,14,19,0,1,-2,-21,2,-11,-14,-14,-3,-3,8,21,-9,5,2,6,-25,-6,-22,-19,29,-16,6,55,30,10,29,24,-31,-7,-12,-52,-22,-9,-18,-91,-3,-6,3,66,25,-3,-11,25,-13,-6,-7,-38,2,6,27,16,-11,5
-11,-14,-14,-3,-3,8,21,-9,5,2,6,-25,-6,-22,-19,29,-16,6,55,30,10,29,24,-31,-7,-12,-52,-22,-9,-18,-91,-3,-6,3,66,25,-3,-11,25,-13,-6,-7,-38,2,6,27,16,-11,21,22,16,39,0,-44,-17,44,-2,6,-3,-3,-1,8,8,4,5
-16,6,55,30,10,29,24,-31,-7,-12,-52,-22,-9,-18,-91,-3,-6,3,66,25,-3,-11,25,-13,-6,-7,-38,2,6,27,16,-11,21,22,16,39,0,-44,-17,44,-2,6,-3,-3,-1,8,8,4,-10,6,-22,-40,-4,0,23,4,11,-12,11,22,5,-4,-64,-4,5
21,22,16,39,0,-44,-17,44,-2,6,-3,-3,-1,8,8,4,-10,6,-22,-40,-4,0,23,4,11,-12,11,22,5,-4,-64,-4,-12,-1,-44,-17,-6,-2,-15,-17,4,20,-9,23,-4,-20,3,1,-8,-13,18,-41,-3,-2,-56,-21,8,16,-18,21,-3,-10,25,8,5
-10,6,-22,-40,-4,0,23,4,11,-12,11,22,5,-4,-64,-4,-12,-1,-44,-17,-6,-2,-15,-17,4,20,-9,23,-4,-20,3,1,-8,-13,18,-41,-3,-2,-56,-21,8,16,-18,21,-3,-10,25,8,-9,-20,-106,27,4,20,6,36,4,12,58,-65,-8,6,-9,-45,5
-12,-1,-44,-17,-6,-2,-15,-17,4,20,-9,23,-4,-20,3,1,-8,-13,18,-41,-3,-2,-56,-21,8,16,-18,21,-3,-10,25,8,-9,-20,-106,27,4,20,6,36,4,12,58,-65,-8,6,-9,-45,-18,-7,-35,-2,11,6,16,-25,2,-28,45,-27,-13,0,-1,25,5
-8,-13,18,-41,-3,-2,-56,-21,8,16,-18,21,-3,-10,25,8,-9,-20,-106,27,4,20,6,36,4,12,58,-65,-8,6,-9,-45,-18,-7,-35,-2,11,6,16,-25,2,-28,45,-27,-13,0,-1,25,-14,5,-36,36,-8,-12,4,11,6,35,-52,-1,2,-19,59,11,5
-9,-20,-106,27,4,20,6,36,4,12,58,-65,-8,6,-9,-45,-18,-7,-35,-2,11,6,16,-25,2,-28,45,-27,-13,0,-1,25,-14,5,-36,36,-8,-12,4,11,6,35,-52,-1,2,-19,59,11,-2,3,57,22,-2,28,30,2,-1,-3,58,19,6,3,0,-2,5
-14,5,-36,36,-8,-12,4,11,6,35,-52,-1,2,-19,59,11,-2,3,57,22,-2,28,30,2,-1,-3,58,19,6,3,0,-2,21,29,-20,-1,7,-7,-17,-5,2,-88,-43,-15,-14,-10,-4,26,-4,61,8,17,-3,12,33,-1,-4,7,-33,-21,0,0,29,20,5
-2,3,57,22,-2,28,30,2,-1,-3,58,19,6,3,0,-2,21,29,-20,-1,7,-7,-17,-5,2,-88,-43,-15,-14,-10,-4,26,-4,61,8,17,-3,12,33,-1,-4,7,-33,-21,0,0,29,20,-29,0,25,24,3,-9,-20,-4,9,20,13,-72,-8,6,-41,-14,5
21,29,-20,-1,7,-7,-17,-5,2,-88,-43,-15,-14,-10,-4,26,-4,61,8,17,-3,12,33,-1,-4,7,-33,-21,0,0,29,20,-29,0,25,24,3,-9,-20,-4,9,20,13,-72,-8,6,-41,-14,-1,-68,28,38,-4,-6,-10,-16,4,8,-6,-14,-5,2,-9,-4,5
-4,61,8,17,-3,12,33,-1,-4,7,-33,-21,0,0,29,20,-29,0,25,24,3,-9,-20,-4,9,20,13,-72,-8,6,-41,-14,-1,-68,28,38,-4,-6,-10,-16,4,8,-6,-14,-5,2,-9,-4,2,34,62,-1,-4,-21,2,9,-19,-14,30,-6,-3,16,-21,-15,5
-29,0,25,24,3,-9,-20,-4,9,20,13,-72,-8,6,-41,-14,-1,-68,28,38,-4,-6,-10,-16,4,8,-6,-14,-5,2,-9,-4,2,34,62,-1,-4,-21,2,9,-19,-14,30,-6,-3,16,-21,-15,7,1,-81,-37,7,5,45,31,4,-1,67,7,-3,3,-49,-19,5
-1,-68,28,38,-4,-6,-10,-16,4,8,-6,-14,-5,2,-9,-4,2,34,62,-1,-4,-21,2,9,-19,-14,30,-6,-3,16,-21,-15,7,1,-81,-37,7,5,45,31,4,-1,67,7,-3,3,-49,-19,7,-10,-4,-44,-9,-5,20,5,1,8,-20,27,3,-6,25,8,5
7,1,-81,-37,7,5,45,31,4,-1,67,7,-3,3,-49,-19,7,-10,-4,-44,-9,-5,20,5,1,8,-20,27,3,-6,25,8,-1,-12,-13,-13,1,-20,-56,-8,14,18,40,22,15,20,5,5,-20,-11,-27,-2,-13,-5,-11,-13,-11,-22,11,40,7,-2,6,1,5
7,-10,-4,-44,-9,-5,20,5,1,8,-20,27,3,-6,25,8,-1,-12,-13,-13,1,-20,-56,-8,14,18,40,22,15,20,5,5,-20,-11,-27,-2,-13,-5,-11,-13,-11,-22,11,40,7,-2,6,1,13,0,-39,-25,0,-5,-15,-15,-4,19,-28,8,-4,1,48,7,5
-1,-12,-13,-13,1,-20,-56,-8,14,18,40,22,15,20,5,5,-20,-11,-27,-2,-13,-5,-11,-13,-11,-22,11,40,7,-2,6,1,13,0,-39,-25,0,-5,-15,-15,-4,19,-28,8,-4,1,48,7,15,-35,-61,-28,8,-11,-22,-2,-17,24,50,-6,-7,29,46,-23,5
-20,-11,-27,-2,-13,-5,-11,-13,-11,-22,11,40,7,-2,6,1,13,0,-39,-25,0,-5,-15,-15,-4,19,-28,8,-4,1,48,7,15,-35,-61,-28,8,-11,-22,-2,-17,24,50,-6,-7,29,46,-23,-10,-19,-12,0,-8,-20,-71,1,9,21,-34,-39,-2,15,66,41,5
13,0,-39,-25,0,-5,-15,-15,-4,19,-28,8,-4,1,48,7,15,-35,-61,-28,8,-11,-22,-2,-17,24,50,-6,-7,29,46,-23,-10,-19,-12,0,-8,-20,-71,1,9,21,-34,-39,-2,15,66,41,7,-9,25,4,3,41,72,-13,6,-16,7,56,12,-8,-26,50,5
-10,-19,-12,0,-8,-20,-71,1,9,21,-34,-39,-2,15,66,41,7,-9,25,4,3,41,72,-13,6,-16,7,56,12,-8,-26,50,2,50,13,-36,-3,-4,28,-4,-2,-26,-93,1,-4,-12,-28,-15,4,-2,11,10,-7,-6,-4,-24,-8,-5,77,-46,-9,0,-21,-2,5
7,-9,25,4,3,41,72,-13,6,-16,7,56,12,-8,-26,50,2,50,13,-36,-3,-4,28,-4,-2,-26,-93,1,-4,-12,-28,-15,4,-2,11,10,-7,-6,-4,-24,-8,-5,77,-46,-9,0,-21,-2,-2,34,25,-41,-1,-3,19,11,-34,-26,-63,50,-6,-17,0,0,5
2,50,13,-36,-3,-4,28,-4,-2,-26,-93,1,-4,-12,-28,-15,4,-2,11,10,-7,-6,-4,-24,-8,-5,77,-46,-9,0,-21,-2,-2,34,25,-41,-1,-3,19,11,-34,-26,-63,50,-6,-17,0,0,3,3,-5,-19,6,27,12,-1,10,31,-87,-17,2,0,12,-1,5
4,-2,11,10,-7,-6,-4,-24,-8,-5,77,-46,-9,0,-21,-2,-2,34,25,-41,-1,-3,19,11,-34,-26,-63,50,-6,-17,0,0,3,3,-5,-19,6,27,12,-1,10,31,-87,-17,2,0,12,-1,12,-21,41,21,-5,-16,3,-7,-10,21,38,-20,-9,-2,-20,-20,5
-2,34,25,-41,-1,-3,19,11,-34,-26,-63,50,-6,-17,0,0,3,3,-5,-19,6,27,12,-1,10,31,-87,-17,2,0,12,-1,12,-21,41,21,-5,-16,3,-7,-10,21,38,-20,-9,-2,-20,-20,6,3,62,-9,0,-23,-37,-18,4,-10,-95,-26,6,28,78,12,5
3,3,-5,-19,6,27,12,-1,10,31,-87,-17,2,0,12,-1,12,-21,41,21,-5,-16,3,-7,-10,21,38,-20,-9,-2,-20,-20,6,3,62,-9,0,-23,-37,-18,4,-10,-95,-26,6,28,78,12,-5,-3,71,46,-9,5,27,-15,-8,4,12,3,0,8,-17,21,5
6,3,62,-9,0,-23,-37,-18,4,-10,-95,-26,6,28,78,12,-5,-3,71,46,-9,5,27,-15,-8,4,12,3,0,8,-17,21,6,1,34,35,-1,-21,2,4,-1,9,13,-23,-3,10,49,29,9,8,-66,28,7,-5,-30,-9,-3,-11,18,-18,1,-20,-36,-30,5
-5,-3,71,46,-9,5,27,-15,-8,4,12,3,0,8,-17,21,6,1,34,35,-1,-21,2,4,-1,9,13,-23,-3,10,49,29,9,8,-66,28,7,-5,-30,-9,-3,-11,18,-18,1,-20,-36,-30,16,20,-74,-12,-6,23,36,2,14,-13,84,52,5,-38,-56,12,5
6,1,34,35,-1,-21,2,4,-1,9,13,-23,-3,10,49,29,9,8,-66,28,7,-5,-30,-9,-3,-11,18,-18,1,-20,-36,-30,16,20,-74,-12,-6,23,36,2,14,-13,84,52,5,-38,-56,12,-5,3,-12,-26,-5,10,-1,22,-13,-26,18,31,1,12,1,-11,5
9,8,-66,28,7,-5,-30,-9,-3,-11,18,-18,1,-20,-36,-30,16,20,-74,-12,-6,23,36,2,14,-13,84,52,5,-38,-56,12,-5,3,-12,-26,-5,10,-1,22,-13,-26,18,31,1,12,1,-11,-6,9,-25,-6,3,-1,-36,-20,2,-13,43,34,-3,-7,-22,-27,5
16,20,-74,-12,-6,23,36,2,14,-13,84,52,5,-38,-56,12,-5,3,-12,-26,-5,10,-1,22,-13,-26,18,31,1,12,1,-11,-6,9,-25,-6,3,-1,-36,-20,2,-13,43,34,-3,-7,-22,-27,6,18,-45,34,6,3,-11,-16,7,24,5,-54,-16,-24,-24,-16,5
-6,9,-25,-6,3,-1,-36,-20,2,-13,43,34,-3,-7,-22,-27,6,18,-45,34,6,3,-11,-16,7,24,5,-54,-16,-24,-24,-16,-24,-57,22,-42,-9,-8,-34,-17,-10,-18,35,46,2,26,66,-10,-1,3,9,-11,2,-7,-43,10,-8,-21,-51,-40,0,2,-20,5,5
6,18,-45,34,6,3,-11,-16,7,24,5,-54,-16,-24,-24,-16,-24,-57,22,-42,-9,-8,-34,-17,-10,-18,35,46,2,26,66,-10,-1,3,9,-11,2,-7,-43,10,-8,-21,-51,-40,0,2,-20,5,-4,22,-2,30,1,-28,-56,-1,10,4,-14,21,3,26,46,-2,5
-24,-57,22,-42,-9,-8,-34,-17,-10,-18,35,46,2,26,66,-10,-1,3,9,-11,2,-7,-43,10,-8,-21,-51,-40,0,2,-20,5,-4,22,-2,30,1,-28,-56,-1,10,4,-14,21,3,26,46,-2,-4,-3,42,-52,-2,-4,47,27,15,-25,8,27,13,1,15,-29,5
-1,3,9,-11,2,-7,-43,10,-8,-21,-51,-40,0,2,-20,5,-4,22,-2,30,1,-28,-56,-1,10,4,-14,21,3,26,46,-2,-4,-3,42,-52,-2,-4,47,27,15,-25,8,27,13,1,15,-29,-4,8,5,-6,-6,17,18,-31,-1,20,35,-5,-1,-10,-31,21,5
-4,22,-2,30,1,-28,-56,-1,10,4,-14,21,3,26,46,-2,-4,-3,42,-52,-2,-4,47,27,15,-25,8,27,13,1,15,-29,-4,8,5,-6,-6,17,18,-31,-1,20,35,-5,-1,-10,-31,21,-1,-23,-18,27,3,-4,-19,-29,-5,-4,4,33,-4,-4,66,27,5
-4,-3,42,-52,-2,-4,47,27,15,-25,8,27,13,1,15,-29,-4,8,5,-6,-6,17,18,-31,-1,20,35,-5,-1,-10,-31,21,-1,-23,-18,27,3,-4,-19,-29,-5,-4,4,33,-4,-4,66,27,1,-37,40,-34,-1,0,-45,20,-20,-2,-60,18,6,-19,-49,10,5
-1,-23,-18,27,3,-4,-19,-29,-5,-4,4,33,-4,-4,66,27,1,-37,40,-34,-1,0,-45,20,-20,-2,-60,18,6,-19,-49,10,-3,-7,-57,-6,-14,-3,-25,-22,-8,-33,91,26,0,-12,-5,12,8,-2,-78,-27,-8,0,12,4,7,14,12,17,8,2,25,4,5
1,-37,40,-34,-1,0,-45,20,-20,-2,-60,18,6,-19,-49,10,-3,-7,-57,-6,-14,-3,-25,-22,-8,-33,91,26,0,-12,-5,12,8,-2,-78,-27,-8,0,12,4,7,14,12,17,8,2,25,4,-12,-2,0,-25,1,-15,-78,-7,7,-12,21,12,-1,10,34,7,5
-3,-7,-57,-6,-14,-3,-25,-22,-8,-33,91,26,0,-12,-5,12,8,-2,-78,-27,-8,0,12,4,7,14,12,17,8,2,25,4,-12,-2,0,-25,1,-15,-78,-7,7,-12,21,12,-1,10,34,7,-8,35,-53,-5,-1,6,10,-3,-24,-29,17,12,2,-9,-31,3,5
8,-2,-78,-27,-8,0,12,4,7,14,12,17,8,2,25,4,-12,-2,0,-25,1,-15,-78,-7,7,-12,21,12,-1,10,34,7,-8,35,-53,-5,-1,6,10,-3,-24,-29,17,12,2,-9,-31,3,5,-35,-43,-10,-8,-2,8,-26,-4,38,18,-11,-1,1,-19,-14,5
5,-35,-43,-10,-8,-2,8,-26,-4,38,18,-11,-1,1,-19,-14,4,-10,27,31,7,8,29,-2,9,6,-41,-35,0,4,26,8,6,9,94,29,10,10,-19,10,1,32,-76,13,1,3,-36,12,-10,-14,-63,-12,-4,-14,17,0,-13,-6,71,-54,-11,10,-30,-29,5
4,-10,27,31,7,8,29,-2,9,6,-41,-35,0,4,26,8,6,9,94,29,10,10,-19,10,1,32,-76,13,1,3,-36,12,-10,-14,-63,-12,-4,-14,17,0,-13,-6,71,-54,-11,10,-30,-29,7,-15,-13,18,5,12,37,9,-3,-3,-10,-12,-3,-14,8,-2,5
6,9,94,29,10,10,-19,10,1,32,-76,13,1,3,-36,12,-10,-14,-63,-12,-4,-14,17,0,-13,-6,71,-54,-11,10,-30,-29,7,-15,-13,18,5,12,37,9,-3,-3,-10,-12,-3,-14,8,-2,9,19,40,26,8,-20,-17,31,13,11,-67,-17,1,31,51,41,5
-10,-14,-63,-12,-4,-14,17,0,-13,-6,71,-54,-11,10,-30,-29,7,-15,-13,18,5,12,37,9,-3,-3,-10,-12,-3,-14,8,-2,9,19,40,26,8,-20,-17,31,13,11,-67,-17,1,31,51,41,-8,11,15,24,4,5,25,10,11,-9,33,67,0,-14,-23,20,5
9,19,40,26,8,-20,-17,31,13,11,-67,-17,1,31,51,41,-8,11,15,24,4,5,25,10,11,-9,33,67,0,-14,-23,20,-2,-3,-28,-4,-8,11,27,-2,18,22,34,55,3,-11,-16,12,0,5,4,-76,-14,-18,-8,7,-46,-33,-54,5,0,9,0,-6,5
-8,11,15,24,4,5,25,10,11,-9,33,67,0,-14,-23,20,-2,-3,-28,-4,-8,11,27,-2,18,22,34,55,3,-11,-16,12,0,5,4,-76,-14,-18,-8,7,-46,-33,-54,5,0,9,0,-6,-1,-50,18,10,3,-4,-9,3,-12,5,-16,-8,-5,-3,-17,-43,5
-2,-3,-28,-4,-8,11,27,-2,18,22,34,55,3,-11,-16,12,0,5,4,-76,-14,-18,-8,7,-46,-33,-54,5,0,9,0,-6,-1,-50,18,10,3,-4,-9,3,-12,5,-16,-8,-5,-3,-17,-43,13,0,-9,28,-3,-22,2,4,18,6,-12,-21,7,7,3,26,5
-2,-3,-28,-4,-8,11,27,-2,18,22,34,55,3,-11,-16,12,0,5,4,-76,-14,-18,-8,7,-46,-33,-54,5,0,9,0,-6,-1,-50,18,10,3,-4,-9,3,-12,5,-16,-8,-5,-3,-17,-43,13,0,-9,28,-3,-22,2,4,18,6,-12,-21,7,7,3,26,5
-1,-50,18,10,3,-4,-9,3,-12,5,-16,-8,-5,-3,-17,-43,13,0,-9,28,-3,-22,2,4,18,6,-12,-21,7,7,3,26,11,10,-10,-3,-1,3,2,19,-13,-4,50,-18,-6,1,9,-21,5,17,-30,3,-6,-15,-11,-19,-16,13,127,-5,0,16,5,0,5
-1,-50,18,10,3,-4,-9,3,-12,5,-16,-8,-5,-3,-17,-43,13,0,-9,28,-3,-22,2,4,18,6,-12,-21,7,7,3,26,11,10,-10,-3,-1,3,2,19,-13,-4,50,-18,-6,1,9,-21,5,17,-30,3,-6,-15,-11,-19,-16,13,127,-5,0,16,5,0,5
11,10,-10,-3,-1,3,2,19,-13,-4,50,-18,-6,1,9,-21,5,17,-30,3,-6,-15,-11,-19,-16,13,127,-5,0,16,5,0,-5,1,-3,18,3,-1,24,-1,8,2,-48,-44,-2,1,17,18,-24,-3,18,61,3,2,14,-15,11,-37,-15,-67,-6,-3,36,1,5
-5,1,-3,18,3,-1,24,-1,8,2,-48,-44,-2,1,17,18,-24,-3,18,61,3,2,14,-15,11,-37,-15,-67,-6,-3,36,1,4,26,-18,4,1,-9,-45,22,-7,-20,25,16,1,22,10,9,12,-1,-22,-5,1,2,14,0,-2,-5,-16,40,-3,-13,-21,15,5
-5,1,-3,18,3,-1,24,-1,8,2,-48,-44,-2,1,17,18,-24,-3,18,61,3,2,14,-15,11,-37,-15,-67,-6,-3,36,1,4,26,-18,4,1,-9,-45,22,-7,-20,25,16,1,22,10,9,12,-1,-22,-5,1,2,14,0,-2,-5,-16,40,-3,-13,-21,15,5
4,26,-18,4,1,-9,-45,22,-7,-20,25,16,1,22,10,9,12,-1,-22,-5,1,2,14,0,-2,-5,-16,40,-3,-13,-21,15,-6,-9,-42,-62,-3,9,24,-74,5,-16,30,14,0,-32,-47,-16,5,13,-9,-28,2,7,6,30,1,2,-8,28,5,28,-5,-26,5
-6,-9,-42,-62,-3,9,24,-74,5,-16,30,14,0,-32,-47,-16,5,13,-9,-28,2,7,6,30,1,2,-8,28,5,28,-5,-26,2,9,13,-36,-12,-6,-4,27,6,0,23,20,7,2,39,5,-8,-2,-38,-10,-6,-12,-31,-27,-9,1,-12,-32,-5,-17,-4,-3,5
-6,-9,-42,-62,-3,9,24,-74,5,-16,30,14,0,-32,-47,-16,5,13,-9,-28,2,7,6,30,1,2,-8,28,5,28,-5,-26,2,9,13,-36,-12,-6,-4,27,6,0,23,20,7,2,39,5,-8,-2,-38,-10,-6,-12,-31,-27,-9,1,-12,-32,-5,-17,-4,-3,5
5,13,-9,-28,2,7,6,30,1,2,-8,28,5,28,-5,-26,2,9,13,-36,-12,-6,-4,27,6,0,23,20,7,2,39,5,-8,-2,-38,-10,-6,-12,-31,-27,-9,1,-12,-32,-5,-17,-4,-3,0,19,106,79,5,10,44,-1,0,-37,-43,-65,-13,-12,-29,-25,5
-8,-2,-38,-10,-6,-12,-31,-27,-9,1,-12,-32,-5,-17,-4,-3,0,19,106,79,5,10,44,-1,0,-37,-43,-65,-13,-12,-29,-25,-24,9,-57,40,3,-15,-29,6,-3,18,3,-31,-4,16,8,-19,9,21,61,13,-1,5,-43,-17,14,3,-108,-8,-6,-9,-29,-2,5
0,19,106,79,5,10,44,-1,0,-37,-43,-65,-13,-12,-29,-25,-24,9,-57,40,3,-15,-29,6,-3,18,3,-31,-4,16,8,-19,9,21,61,13,-1,5,-43,-17,14,3,-108,-8,-6,-9,-29,-2,-5,5,83,-19,0,32,80,16,2,-18,-30,34,4,-12,-13,-15,5
9,21,61,13,-1,5,-43,-17,14,3,-108,-8,-6,-9,-29,-2,-5,5,83,-19,0,32,80,16,2,-18,-30,34,4,-12,-13,-15,-5,-16,-49,-7,-1,-9,35,20,8,16,6,25,-6,4,-4,12,2,-15,15,18,10,2,-3,-37,2,11,-71,-99,-15,-9,8,32,5
-5,5,83,-19,0,32,80,16,2,-18,-30,34,4,-12,-13,-15,-5,-16,-49,-7,-1,-9,35,20,8,16,6,25,-6,4,-4,12,2,-15,15,18,10,2,-3,-37,2,11,-71,-99,-15,-9,8,32,8,-9,74,20,0,-9,-18,-54,-26,-30,-85,43,1,-12,25,3,5
-5,-16,-49,-7,-1,-9,35,20,8,16,6,25,-6,4,-4,12,2,-15,15,18,10,2,-3,-37,2,11,-71,-99,-15,-9,8,32,8,-9,74,20,0,-9,-18,-54,-26,-30,-85,43,1,-12,25,3,-3,26,44,-64,-4,12,17,11,11,3,-1,3,-2,-38,-28,7,5
2,-15,15,18,10,2,-3,-37,2,11,-71,-99,-15,-9,8,32,8,-9,74,20,0,-9,-18,-54,-26,-30,-85,43,1,-12,25,3,-3,26,44,-64,-4,12,17,11,11,3,-1,3,-2,-38,-28,7,-18,-55,7,9,7,22,13,16,4,8,14,-26,-10,-20,-30,-29,5
8,-9,74,20,0,-9,-18,-54,-26,-30,-85,43,1,-12,25,3,-3,26,44,-64,-4,12,17,11,11,3,-1,3,-2,-38,-28,7,-18,-55,7,9,7,22,13,16,4,8,14,-26,-10,-20,-30,-29,-8,-13,76,5,1,6,-38,-20,12,32,-87,13,-1,-10,-14,-7,5
-18,-55,7,9,7,22,13,16,4,8,14,-26,-10,-20,-30,-29,-8,-13,76,5,1,6,-38,-20,12,32,-87,13,-1,-10,-14,-7,5,6,50,-33,2,0,-2,13,-8,-1,12,26,0,-2,15,-19,22,5,9,13,4,14,16,30,-13,-37,-27,3,-12,-11,-20,-28,5
-18,-55,7,9,7,22,13,16,4,8,14,-26,-10,-20,-30,-29,-8,-13,76,5,1,6,-38,-20,12,32,-87,13,-1,-10,-14,-7,5,6,50,-33,2,0,-2,13,-8,-1,12,26,0,-2,15,-19,22,5,9,13,4,14,16,30,-13,-37,-27,3,-12,-11,-20,-28,5
5,6,50,-33,2,0,-2,13,-8,-1,12,26,0,-2,15,-19,22,5,9,13,4,14,16,30,-13,-37,-27,3,-12,-11,-20,-28,4,15,-42,-29,-2,-5,2,7,-13,-9,21,-10,-1,1,3,5,10,31,-24,-47,-4,-12,8,-21,14,-22,93,37,4,1,0,-2,5
22,5,9,13,4,14,16,30,-13,-37,-27,3,-12,-11,-20,-28,4,15,-42,-29,-2,-5,2,7,-13,-9,21,-10,-1,1,3,5,10,31,-24,-47,-4,-12,8,-21,14,-22,93,37,4,1,0,-2,-25,7,-38,0,-3,24,8,-12,4,-2,-16,1,3,-17,85,89,5
4,15,-42,-29,-2,-5,2,7,-13,-9,21,-10,-1,1,3,5,10,31,-24,-47,-4,-12,8,-21,14,-22,93,37,4,1,0,-2,-25,7,-38,0,-3,24,8,-12,4,-2,-16,1,3,-17,85,89,-7,-16,-19,21,-10,26,-6,-77,0,10,-55,-28,5,10,17,-15,5
4,15,-42,-29,-2,-5,2,7,-13,-9,21,-10,-1,1,3,5,10,31,-24,-47,-4,-12,8,-21,14,-22,93,37,4,1,0,-2,-25,7,-38,0,-3,24,8,-12,4,-2,-16,1,3,-17,85,89,-7,-16,-19,21,-10,26,-6,-77,0,10,-55,-28,5,10,17,-15,5
-25,7,-38,0,-3,24,8,-12,4,-2,-16,1,3,-17,85,89,-7,-16,-19,21,-10,26,-6,-77,0,10,-55,-28,5,10,17,-15,-8,2,88,12,3,-1,-23,-12,11,10,3,8,-4,-4,-25,-7,-6,-6,-23,16,6,-12,-28,30,-9,8,28,-19,-1,8,15,-1,5
-8,2,88,12,3,-1,-23,-12,11,10,3,8,-4,-4,-25,-7,-6,-6,-23,16,6,-12,-28,30,-9,8,28,-19,-1,8,15,-1,8,0,-36,5,-4,-5,-7,17,-10,-22,-31,0,-2,-3,-56,-47,0,8,-1,23,3,-5,6,10,3,15,-19,-11,-1,7,-55,-9,5
-6,-6,-23,16,6,-12,-28,30,-9,8,28,-19,-1,8,15,-1,8,0,-36,5,-4,-5,-7,17,-10,-22,-31,0,-2,-3,-56,-47,0,8,-1,23,3,-5,6,10,3,15,-19,-11,-1,7,-55,-9,-2,-12,-42,-30,-6,-9,54,13,-8,-10,46,-12,4,0,-18,-9,5
-6,-6,-23,16,6,-12,-28,30,-9,8,28,-19,-1,8,15,-1,8,0,-36,5,-4,-5,-7,17,-10,-22,-31,0,-2,-3,-56,-47,0,8,-1,23,3,-5,6,10,3,15,-19,-11,-1,7,-55,-9,-2,-12,-42,-30,-6,-9,54,13,-8,-10,46,-12,4,0,-18,-9,5
-2,-12,-42,-30,-6,-9,54,13,-8,-10,46,-12,4,0,-18,-9,-1,-6,-39,-12,-6,-19,22,13,3,10,25,21,4,3,-17,-9,17,-3,51,51,10,6,-10,16,-10,11,-112,-82,-15,-4,6,-18,-3,47,99,53,-1,-10,-12,1,3,-32,-21,-41,-2,-6,-19,19,5
-1,-6,-39,-12,-6,-19,22,13,3,10,25,21,4,3,-17,-9,17,-3,51,51,10,6,-10,16,-10,11,-112,-82,-15,-4,6,-18,-3,47,99,53,-1,-10,-12,1,3,-32,-21,-41,-2,-6,-19,19,-12,28,-34,19,-5,3,17,-24,-19,-14,54,8,0,-4,-46,-20,5
17,-3,51,51,10,6,-10,16,-10,11,-112,-82,-15,-4,6,-18,-3,47,99,53,-1,-10,-12,1,3,-32,-21,-41,-2,-6,-19,19,-12,28,-34,19,-5,3,17,-24,-19,-14,54,8,0,-4,-46,-20,-5,-36,-23,-12,-1,6,-20,-2,-1,-2,22,27,3,9,50,6,5
17,-3,51,51,10,6,-10,16,-10,11,-112,-82,-15,-4,6,-18,-3,47,99,53,-1,-10,-12,1,3,-32,-21,-41,-2,-6,-19,19,-12,28,-34,19,-5,3,17,-24,-19,-14,54,8,0,-4,-46,-20,-5,-36,-23,-12,-1,6,-20,-2,-1,-2,22,27,3,9,50,6,5
-12,28,-34,19,-5,3,17,-24,-19,-14,54,8,0,-4,-46,-20,-5,-36,-23,-12,-1,6,-20,-2,-1,-2,22,27,3,9,50,6,31,24,-23,-3,3,2,-15,40,4,15,36,29,3,-8,-16,8,1,-18,-38,-66,-13,-3,-6,0,13,25,47,81,8,21,47,-8,5
-5,-36,-23,-12,-1,6,-20,-2,-1,-2,22,27,3,9,50,6,31,24,-23,-3,3,2,-15,40,4,15,36,29,3,-8,-16,8,1,-18,-38,-66,-13,-3,-6,0,13,25,47,81,8,21,47,-8,-6,9,-48,-63,-8,-23,-49,-28,-2,-15,45,31,-3,4,23,10,5
31,24,-23,-3,3,2,-15,40,4,15,36,29,3,-8,-16,8,1,-18,-38,-66,-13,-3,-6,0,13,25,47,81,8,21,47,-8,-6,9,-48,-63,-8,-23,-49,-28,-2,-15,45,31,-3,4,23,10,-13,-16,-9,-14,2,0,-22,6,-7,-16,-69,0,-6,-15,3,0,5
-6,9,-48,-63,-8,-23,-49,-28,-2,-15,45,31,-3,4,23,10,-13,-16,-9,-14,2,0,-22,6,-7,-16,-69,0,-6,-15,3,0,0,6,13,-20,-2,10,-15,-17,4,11,14,-7,7,2,-28,-12,8,-25,17,38,-3,-8,26,21,-4,3,-17,-9,-5,-3,-32,-21,5
-13,-16,-9,-14,2,0,-22,6,-7,-16,-69,0,-6,-15,3,0,0,6,13,-20,-2,10,-15,-17,4,11,14,-7,7,2,-28,-12,8,-25,17,38,-3,-8,26,21,-4,3,-17,-9,-5,-3,-32,-21,1,4,64,-2,3,7,60,21,1,29,-75,-80,-7,11,9,-3,5
0,6,13,-20,-2,10,-15,-17,4,11,14,-7,7,2,-28,-12,8,-25,17,38,-3,-8,26,21,-4,3,-17,-9,-5,-3,-32,-21,1,4,64,-2,3,7,60,21,1,29,-75,-80,-7,11,9,-3,-6,-69,31,22,6,7,18,44,-9,26,57,12,3,-8,-6,-50,5
8,-25,17,38,-3,-8,26,21,-4,3,-17,-9,-5,-3,-32,-21,1,4,64,-2,3,7,60,21,1,29,-75,-80,-7,11,9,-3,-6,-69,31,22,6,7,18,44,-9,26,57,12,3,-8,-6,-50,-9,-18,-38,24,-1,-16,-35,-6,19,9,10,-15,0,-6,10,4,5
-6,-69,31,22,6,7,18,44,-9,26,57,12,3,-8,-6,-50,-9,-18,-38,24,-1,-16,-35,-6,19,9,10,-15,0,-6,10,4,11,9,-18,-39,-1,9,-18,6,-2,-10,20,64,-7,-3,14,22,-25,-27,2,-53,-6,-4,-23,-12,-1,17,17,28,5,9,17,6,5
-9,-18,-38,24,-1,-16,-35,-6,19,9,10,-15,0,-6,10,4,11,9,-18,-39,-1,9,-18,6,-2,-10,20,64,-7,-3,14,22,-25,-27,2,-53,-6,-4,-23,-12,-1,17,17,28,5,9,17,6,-4,-8,-77,-2,-1,-10,4,-25,23,7,35,-19,5,-11,-19,49,5
11,9,-18,-39,-1,9,-18,6,-2,-10,20,64,-7,-3,14,22,-25,-27,2,-53,-6,-4,-23,-12,-1,17,17,28,5,9,17,6,-4,-8,-77,-2,-1,-10,4,-25,23,7,35,-19,5,-11,-19,49,-1,-32,-7,35,-2,7,9,-11,-15,-6,-4,12,-5,-2,-22,-15,5
-25,-27,2,-53,-6,-4,-23,-12,-1,17,17,28,5,9,17,6,-4,-8,-77,-2,-1,-10,4,-25,23,7,35,-19,5,-11,-19,49,-1,-32,-7,35,-2,7,9,-11,-15,-6,-4,12,-5,-2,-22,-15,11,20,15,0,1,-3,-8,-3,1,21,7,-18,-6,23,-1,-9,5
-4,-8,-77,-2,-1,-10,4,-25,23,7,35,-19,5,-11,-19,49,-1,-32,-7,35,-2,7,9,-11,-15,-6,-4,12,-5,-2,-22,-15,11,20,15,0,1,-3,-8,-3,1,21,7,-18,-6,23,-1,-9,-12,0,-6,43,3,-2,11,-11,-7,-11,-11,-49,-11,-17,-82,-6,5
-4,-8,-77,-2,-1,-10,4,-25,23,7,35,-19,5,-11,-19,49,-1,-32,-7,35,-2,7,9,-11,-15,-6,-4,12,-5,-2,-22,-15,11,20,15,0,1,-3,-8,-3,1,21,7,-18,-6,23,-1,-9,-12,0,-6,43,3,-2,11,-11,-7,-11,-11,-49,-11,-17,-82,-6,5
-12,0,-6,43,3,-2,11,-11,-7,-11,-11,-49,-11,-17,-82,-6,-7,16,-85,-53,2,4,-11,1,-31,-17,37,-11,-11,-15,-27,-9,3,8,25,31,3,-2,-23,-3,3,0,42,29,2,10,40,33,-2,30,29,10,2,-3,-23,-36,-5,-66,-49,-35,-1,-8,18,5,5
-7,16,-85,-53,2,4,-11,1,-31,-17,37,-11,-11,-15,-27,-9,3,8,25,31,3,-2,-23,-3,3,0,42,29,2,10,40,33,-2,30,29,10,2,-3,-23,-36,-5,-66,-49,-35,-1,-8,18,5,6,21,-12,39,3,5,4,6,11,15,90,8,3,-5,15,0,5
3,8,25,31,3,-2,-23,-3,3,0,42,29,2,10,40,33,-2,30,29,10,2,-3,-23,-36,-5,-66,-49,-35,-1,-8,18,5,6,21,-12,39,3,5,4,6,11,15,90,8,3,-5,15,0,-15,-11,-13,-3,-7,-18,-24,-11,5,4,9,-47,0,23,48,27,5
-2,30,29,10,2,-3,-23,-36,-5,-66,-49,-35,-1,-8,18,5,6,21,-12,39,3,5,4,6,11,15,90,8,3,-5,15,0,-15,-11,-13,-3,-7,-18,-24,-11,5,4,9,-47,0,23,48,27,0,-25,-24,26,7,-3,-30,18,-16,-27,5,-32,-8,-8,6,-25,5
-15,-11,-13,-3,-7,-18,-24,-11,5,4,9,-47,0,23,48,27,0,-25,-24,26,7,-3,-30,18,-16,-27,5,-32,-8,-8,6,-25,3,24,-14,7,0,-1,34,11,12,20,-3,7,0,2,-4,-12,-1,-12,-2,15,1,2,57,28,16,16,-4,7,0,8,-2,-7,5
0,-25,-24,26,7,-3,-30,18,-16,-27,5,-32,-8,-8,6,-25,3,24,-14,7,0,-1,34,11,12,20,-3,7,0,2,-4,-12,-1,-12,-2,15,1,2,57,28,16,16,-4,7,0,8,-2,-7,1,-17,3,9,-6,-9,1,0,-3,-4,-18,-3,0,-13,-24,2,5
3,24,-14,7,0,-1,34,11,12,20,-3,7,0,2,-4,-12,-1,-12,-2,15,1,2,57,28,16,16,-4,7,0,8,-2,-7,1,-17,3,9,-6,-9,1,0,-3,-4,-18,-3,0,-13,-24,2,10,-3,-6,-19,0,0,8,12,-8,26,-16,20,4,-4,-7,-9,5
-1,-12,-2,15,1,2,57,28,16,16,-4,7,0,8,-2,-7,1,-17,3,9,-6,-9,1,0,-3,-4,-18,-3,0,-13,-24,2,10,-3,-6,-19,0,0,8,12,-8,26,-16,20,4,-4,-7,-9,-2,-15,-44,4,-5,8,25,8,-1,-7,43,-10,0,-19,-26,-26,5
10,-3,-6,-19,0,0,8,12,-8,26,-16,20,4,-4,-7,-9,-2,-15,-44,4,-5,8,25,8,-1,-7,43,-10,0,-19,-26,-26,-16,-5,13,-27,-7,10,25,-10,4,-6,-4,11,-2,2,-35,35,-2,-5,-25,-20,1,37,24,-31,-11,-10,29,19,2,2,-13,-5,5
10,-3,-6,-19,0,0,8,12,-8,26,-16,20,4,-4,-7,-9,-2,-15,-44,4,-5,8,25,8,-1,-7,43,-10,0,-19,-26,-26,-16,-5,13,-27,-7,10,25,-10,4,-6,-4,11,-2,2,-35,35,-2,-5,-25,-20,1,37,24,-31,-11,-10,29,19,2,2,-13,-5,5
-16,-5,13,-27,-7,10,25,-10,4,-6,-4,11,-2,2,-35,35,-2,-5,-25,-20,1,37,24,-31,-11,-10,29,19,2,2,-13,-5,-1,-5,-37,-36,-2,-15,-28,-19,7,-7,-15,23,-7,-8,87,34,-2,1,89,22,9,6,51,35,7,25,-77,-33,-9,-6,0,10,5
-2,-5,-25,-20,1,37,24,-31,-11,-10,29,19,2,2,-13,-5,-1,-5,-37,-36,-2,-15,-28,-19,7,-7,-15,23,-7,-8,87,34,-2,1,89,22,9,6,51,35,7,25,-77,-33,-9,-6,0,10,0,8,24,6,-5,-1,-27,8,-5,0,-30,-15,2,-2,-16,-34,5
-1,-5,-37,-36,-2,-15,-28,-19,7,-7,-15,23,-7,-8,87,34,-2,1,89,22,9,6,51,35,7,25,-77,-33,-9,-6,0,10,0,8,24,6,-5,-1,-27,8,-5,0,-30,-15,2,-2,-16,-34,-6,-12,-4,-2,-5,-10,-22,7,-10,-22,39,18,2,2,17,-10,5
0,8,24,6,-5,-1,-27,8,-5,0,-30,-15,2,-2,-16,-34,-6,-12,-4,-2,-5,-10,-22,7,-10,-22,39,18,2,2,17,-10,1,25,-22,-31,-7,-6,21,-1,0,-50,21,14,-3,-13,-46,-5,3,41,-18,7,-2,10,-22,-21,2,-9,-21,-6,2,-5,-8,15,5
0,8,24,6,-5,-1,-27,8,-5,0,-30,-15,2,-2,-16,-34,-6,-12,-4,-2,-5,-10,-22,7,-10,-22,39,18,2,2,17,-10,1,25,-22,-31,-7,-6,21,-1,0,-50,21,14,-3,-13,-46,-5,3,41,-18,7,-2,10,-22,-21,2,-9,-21,-6,2,-5,-8,15,5
1,25,-22,-31,-7,-6,21,-1,0,-50,21,14,-3,-13,-46,-5,3,41,-18,7,-2,10,-22,-21,2,-9,-21,-6,2,-5,-8,15,-2,3,-2,49,1,11,-9,-18,-1,-6,53,-26,1,0,18,-21,0,-15,4,-7,2,-9,-11,3,8,28,6,2,-4,-16,19,6,5
1,25,-22,-31,-7,-6,21,-1,0,-50,21,14,-3,-13,-46,-5,3,41,-18,7,-2,10,-22,-21,2,-9,-21,-6,2,-5,-8,15,-2,3,-2,49,1,11,-9,-18,-1,-6,53,-26,1,0,18,-21,0,-15,4,-7,2,-9,-11,3,8,28,6,2,-4,-16,19,6,5
-2,3,-2,49,1,11,-9,-18,-1,-6,53,-26,1,0,18,-21,0,-15,4,-7,2,-9,-11,3,8,28,6,2,-4,-16,19,6,4,-22,44,-6,1,-7,-25,-10,-9,1,-1,8,5,21,14,-7,8,13,15,30,-1,-10,-15,-6,-16,-18,-34,-18,0,12,0,-10,5
0,-15,4,-7,2,-9,-11,3,8,28,6,2,-4,-16,19,6,4,-22,44,-6,1,-7,-25,-10,-9,1,-1,8,5,21,14,-7,8,13,15,30,-1,-10,-15,-6,-16,-18,-34,-18,0,12,0,-10,-7,14,41,-4,0,-32,-25,-6,-3,-13,-36,4,-4,21,30,16,5
4,-22,44,-6,1,-7,-25,-10,-9,1,-1,8,5,21,14,-7,8,13,15,30,-1,-10,-15,-6,-16,-18,-34,-18,0,12,0,-10,-7,14,41,-4,0,-32,-25,-6,-3,-13,-36,4,-4,21,30,16,3,-11,-4,-24,-2,-8,-23,-13,2,5,6,50,3,4,8,-13,5
-7,14,41,-4,0,-32,-25,-6,-3,-13,-36,4,-4,21,30,16,3,-11,-4,-24,-2,-8,-23,-13,2,5,6,50,3,4,8,-13,5,16,-5,-76,-7,-5,1,39,-2,4,5,9,2,-1,-16,-75,7,-6,-4,-7,-10,-5,-8,14,-18,-12,-12,28,-1,7,-3,-13,5
5,16,-5,-76,-7,-5,1,39,-2,4,5,9,2,-1,-16,-75,7,-6,-4,-7,-10,-5,-8,14,-18,-12,-12,28,-1,7,-3,-13,-2,-18,-35,-26,1,-1,10,19,3,29,4,7,-2,1,-21,6,19,-3,40,58,6,0,16,3,-34,2,34,-63,-7,2,-21,-12,5
5,16,-5,-76,-7,-5,1,39,-2,4,5,9,2,-1,-16,-75,7,-6,-4,-7,-10,-5,-8,14,-18,-12,-12,28,-1,7,-3,-13,-2,-18,-35,-26,1,-1,10,19,3,29,4,7,-2,1,-21,6,19,-3,40,58,6,0,16,3,-34,2,34,-63,-7,2,-21,-12,5
-2,-18,-35,-26,1,-1,10,19,3,29,4,7,-2,1,-21,6,19,-3,40,58,6,0,16,3,-34,2,34,-63,-7,2,-21,-12,27,-11,-12,-1,2,9,26,19,-3,9,-83,-39,-10,-17,-29,-6,-4,-11,83,2,-4,-9,3,16,21,5,-8,20,8,13,27,28,5
-2,-18,-35,-26,1,-1,10,19,3,29,4,7,-2,1,-21,6,19,-3,40,58,6,0,16,3,-34,2,34,-63,-7,2,-21,-12,27,-11,-12,-1,2,9,26,19,-3,9,-83,-39,-10,-17,-29,-6,-4,-11,83,2,-4,-9,3,16,21,5,-8,20,8,13,27,28,5
27,-11,-12,-1,2,9,26,19,-3,9,-83,-39,-10,-17,-29,-6,-4,-11,83,2,-4,-9,3,16,21,5,-8,20,8,13,27,28,-20,10,-19,8,-2,-2,-15,-28,0,-12,16,32,6,3,18,16,-5,2,-47,-61,-7,-4,-1,-12,7,9,13,16,1,-1,21,12,5
-4,-11,83,2,-4,-9,3,16,21,5,-8,20,8,13,27,28,-20,10,-19,8,-2,-2,-15,-28,0,-12,16,32,6,3,18,16,-5,2,-47,-61,-7,-4,-1,-12,7,9,13,16,1,-1,21,12,7,-18,-58,-11,1,0,1,-7,-6,-12,2,13,-6,2,9,-1,5
-20,10,-19,8,-2,-2,-15,-28,0,-12,16,32,6,3,18,16,-5,2,-47,-61,-7,-4,-1,-12,7,9,13,16,1,-1,21,12,7,-18,-58,-11,1,0,1,-7,-6,-12,2,13,-6,2,9,-1,-7,-2,2,-26,-1,-5,10,30,-17,-24,-20,16,-1,5,3,-11,5
-5,2,-47,-61,-7,-4,-1,-12,7,9,13,16,1,-1,21,12,7,-18,-58,-11,1,0,1,-7,-6,-12,2,13,-6,2,9,-1,-7,-2,2,-26,-1,-5,10,30,-17,-24,-20,16,-1,5,3,-11,1,-17,9,34,-1,2,-9,-6,-3,30,21,-13,-5,-14,-16,-1,5
7,-18,-58,-11,1,0,1,-7,-6,-12,2,13,-6,2,9,-1,-7,-2,2,-26,-1,-5,10,30,-17,-24,-20,16,-1,5,3,-11,1,-17,9,34,-1,2,-9,-6,-3,30,21,-13,-5,-14,-16,-1,17,-35,-46,-3,7,18,25,-1,0,-6,-54,-53,-14,-39,-57,-25,5
1,-17,9,34,-1,2,-9,-6,-3,30,21,-13,-5,-14,-16,-1,17,-35,-46,-3,7,18,25,-1,0,-6,-54,-53,-14,-39,-57,-25,-5,31,-35,8,2,16,22,-7,5,-5,-38,3,2,2,29,39,-9,9,26,1,-4,-3,-7,-18,4,-8,-61,10,3,-6,13,18,5
17,-35,-46,-3,7,18,25,-1,0,-6,-54,-53,-14,-39,-57,-25,-5,31,-35,8,2,16,22,-7,5,-5,-38,3,2,2,29,39,-9,9,26,1,-4,-3,-7,-18,4,-8,-61,10,3,-6,13,18,-2,4,68,-54,-9,-25,-9,-7,-8,-7,9,4,3,1,3,1,5
-5,31,-35,8,2,16,22,-7,5,-5,-38,3,2,2,29,39,-9,9,26,1,-4,-3,-7,-18,4,-8,-61,10,3,-6,13,18,-2,4,68,-54,-9,-25,-9,-7,-8,-7,9,4,3,1,3,1,-6,22,23,42,-2,-7,-40,39,4,10,17,-25,3,-12,-8,-29,5
-9,9,26,1,-4,-3,-7,-18,4,-8,-61,10,3,-6,13,18,-2,4,68,-54,-9,-25,-9,-7,-8,-7,9,4,3,1,3,1,-6,22,23,42,-2,-7,-40,39,4,10,17,-25,3,-12,-8,-29,-7,8,-74,-29,-6,10,-2,-30,22,8,-5,51,1,-5,0,3,5
-2,4,68,-54,-9,-25,-9,-7,-8,-7,9,4,3,1,3,1,-6,22,23,42,-2,-7,-40,39,4,10,17,-25,3,-12,-8,-29,-7,8,-74,-29,-6,10,-2,-30,22,8,-5,51,1,-5,0,3,-22,1,-9,-1,-3,-3,-14,4,-9,-11,22,10,1,4,3,4,5
-7,8,-74,-29,-6,10,-2,-30,22,8,-5,51,1,-5,0,3,-22,1,-9,-1,-3,-3,-14,4,-9,-11,22,10,1,4,3,4,-12,-23,14,15,-13,-12,13,6,27,8,1,-28,0,-17,-17,23,7,5,60,16,5,9,-17,-26,0,28,41,-6,-3,9,53,0,5
-22,1,-9,-1,-3,-3,-14,4,-9,-11,22,10,1,4,3,4,-12,-23,14,15,-13,-12,13,6,27,8,1,-28,0,-17,-17,23,7,5,60,16,5,9,-17,-26,0,28,41,-6,-3,9,53,0,14,-19,-77,0,8,7,29,29,-15,-26,27,9,-5,-2,14,18,5
-12,-23,14,15,-13,-12,13,6,27,8,1,-28,0,-17,-17,23,7,5,60,16,5,9,-17,-26,0,28,41,-6,-3,9,53,0,14,-19,-77,0,8,7,29,29,-15,-26,27,9,-5,-2,14,18,-5,11,1,52,-2,-15,4,-25,3,25,-23,-72,1,5,-2,7,5
7,5,60,16,5,9,-17,-26,0,28,41,-6,-3,9,53,0,14,-19,-77,0,8,7,29,29,-15,-26,27,9,-5,-2,14,18,-5,11,1,52,-2,-15,4,-25,3,25,-23,-72,1,5,-2,7,-6,-28,8,-2,-6,18,30,25,5,32,-3,-1,-2,-12,-8,-10,5
14,-19,-77,0,8,7,29,29,-15,-26,27,9,-5,-2,14,18,-5,11,1,52,-2,-15,4,-25,3,25,-23,-72,1,5,-2,7,-6,-28,8,-2,-6,18,30,25,5,32,-3,-1,-2,-12,-8,-10,-4,-30,-49,-27,6,10,1,23,-7,11,14,28,-7,-4,3,-4,5
-4,-30,-49,-27,6,10,1,23,-7,11,14,28,-7,-4,3,-4,-7,-11,56,14,-1,-8,-37,-11,-9,-3,-3,11,-4,-24,-10,-13,-3,-14,-73,-32,1,56,40,-3,28,19,26,0,5,12,-20,9,-15,26,79,63,3,-10,11,43,-17,-15,5,-21,0,-5,-9,-56,5
-7,-11,56,14,-1,-8,-37,-11,-9,-3,-3,11,-4,-24,-10,-13,-3,-14,-73,-32,1,56,40,-3,28,19,26,0,5,12,-20,9,-15,26,79,63,3,-10,11,43,-17,-15,5,-21,0,-5,-9,-56,6,4,1,2,0,-25,9,17,18,-21,-34,-17,0,2,-35,-2,5
-15,26,79,63,3,-10,11,43,-17,-15,5,-21,0,-5,-9,-56,6,4,1,2,0,-25,9,17,18,-21,-34,-17,0,2,-35,-2,0,34,18,13,-7,8,6,-12,-11,-3,20,-63,-2,8,2,17,-11,-2,41,59,4,-20,-11,-23,0,0,15,-27,-7,11,8,-7,5
-15,26,79,63,3,-10,11,43,-17,-15,5,-21,0,-5,-9,-56,6,4,1,2,0,-25,9,17,18,-21,-34,-17,0,2,-35,-2,0,34,18,13,-7,8,6,-12,-11,-3,20,-63,-2,8,2,17,-11,-2,41,59,4,-20,-11,-23,0,0,15,-27,-7,11,8,-7,5
0,34,18,13,-7,8,6,-12,-11,-3,20,-63,-2,8,2,17,-11,-2,41,59,4,-20,-11,-23,0,0,15,-27,-7,11,8,-7,9,2,7,4,5,1,-19,-5,2,-39,-73,31,-4,-12,-26,-10,-14,1,-9,-42,-5,28,-10,-39,0,-22,-8,15,-1,-12,-28,14,5
9,2,7,4,5,1,-19,-5,2,-39,-73,31,-4,-12,-26,-10,-14,1,-9,-42,-5,28,-10,-39,0,-22,-8,15,-1,-12,-28,14,-30,10,-18,17,1,9,28,-29,5,-11,33,-18,-2,1,7,21,8,32,33,-10,-3,-14,2,10,10,-26,32,48,7,-2,-22,20,5
9,2,7,4,5,1,-19,-5,2,-39,-73,31,-4,-12,-26,-10,-14,1,-9,-42,-5,28,-10,-39,0,-22,-8,15,-1,-12,-28,14,-30,10,-18,17,1,9,28,-29,5,-11,33,-18,-2,1,7,21,8,32,33,-10,-3,-14,2,10,10,-26,32,48,7,-2,-22,20,5
-30,10,-18,17,1,9,28,-29,5,-11,33,-18,-2,1,7,21,8,32,33,-10,-3,-14,2,10,10,-26,32,48,7,-2,-22,20,0,-2,17,-8,-4,17,23,-13,-8,-19,-56,-52,-6,-7,-28,-9,-6,29,15,20,-3,-21,33,15,7,2,-6,39,3,9,22,-4,5
-30,10,-18,17,1,9,28,-29,5,-11,33,-18,-2,1,7,21,8,32,33,-10,-3,-14,2,10,10,-26,32,48,7,-2,-22,20,0,-2,17,-8,-4,17,23,-13,-8,-19,-56,-52,-6,-7,-28,-9,-6,29,15,20,-3,-21,33,15,7,2,-6,39,3,9,22,-4,5
0,-2,17,-8,-4,17,23,-13,-8,-19,-56,-52,-6,-7,-28,-9,-6,29,15,20,-3,-21,33,15,7,2,-6,39,3,9,22,-4,10,-11,-20,-31,2,-22,-34,-2,-16,2,-3,5,-7,14,3,28,23,-15,-24,-7,1,21,-4,-79,-9,17,38,18,0,1,17,8,5
10,-11,-20,-31,2,-22,-34,-2,-16,2,-3,5,-7,14,3,28,23,-15,-24,-7,1,21,-4,-79,-9,17,38,18,0,1,17,8,-4,-13,-50,-26,0,-2,-19,-5,5,13,5,30,6,-14,-39,0,-6,-10,-64,11,1,3,18,24,-6,-10,0,-4,2,20,15,-5,5
10,-11,-20,-31,2,-22,-34,-2,-16,2,-3,5,-7,14,3,28,23,-15,-24,-7,1,21,-4,-79,-9,17,38,18,0,1,17,8,-4,-13,-50,-26,0,-2,-19,-5,5,13,5,30,6,-14,-39,0,-6,-10,-64,11,1,3,18,24,-6,-10,0,-4,2,20,15,-5,5
-4,-13,-50,-26,0,-2,-19,-5,5,13,5,30,6,-14,-39,0,-6,-10,-64,11,1,3,18,24,-6,-10,0,-4,2,20,15,-5,12,-29,-34,-31,-5,-4,-2,-14,4,14,37,9,2,16,53,51,-14,-9,-16,-18,-7,-13,-11,32,8,8,19,17,5,-6,8,-1,5
-4,-13,-50,-26,0,-2,-19,-5,5,13,5,30,6,-14,-39,0,-6,-10,-64,11,1,3,18,24,-6,-10,0,-4,2,20,15,-5,12,-29,-34,-31,-5,-4,-2,-14,4,14,37,9,2,16,53,51,-14,-9,-16,-18,-7,-13,-11,32,8,8,19,17,5,-6,8,-1,5
12,-29,-34,-31,-5,-4,-2,-14,4,14,37,9,2,16,53,51,-14,-9,-16,-18,-7,-13,-11,32,8,8,19,17,5,-6,8,-1,-12,-9,0,-2,1,2,-22,-5,8,-16,-4,16,1,-7,13,-9,-5,13,28,-38,-4,4,2,1,-13,-5,-57,-8,-4,-10,-40,-20,5
-12,-9,0,-2,1,2,-22,-5,8,-16,-4,16,1,-7,13,-9,-5,13,28,-38,-4,4,2,1,-13,-5,-57,-8,-4,-10,-40,-20,5,28,70,2,-7,-13,5,3,-10,27,-40,5,-4,-20,-58,-32,9,-5,64,19,1,5,-4,3,-26,-14,-75,9,-1,-1,28,-12,5
-12,-9,0,-2,1,2,-22,-5,8,-16,-4,16,1,-7,13,-9,-5,13,28,-38,-4,4,2,1,-13,-5,-57,-8,-4,-10,-40,-20,5,28,70,2,-7,-13,5,3,-10,27,-40,5,-4,-20,-58,-32,9,-5,64,19,1,5,-4,3,-26,-14,-75,9,-1,-1,28,-12,5
-5,13,28,-38,-4,4,2,1,-13,-5,-57,-8,-4,-10,-40,-20,5,28,70,2,-7,-13,5,3,-10,27,-40,5,-4,-20,-58,-32,9,-5,64,19,1,5,-4,3,-26,-14,-75,9,-1,-1,28,-12,11,31,-15,-30,-1,2,17,54,-1,11,71,8,0,8,-44,-68,5
5,28,70,2,-7,-13,5,3,-10,27,-40,5,-4,-20,-58,-32,9,-5,64,19,1,5,-4,3,-26,-14,-75,9,-1,-1,28,-12,11,31,-15,-30,-1,2,17,54,-1,11,71,8,0,8,-44,-68,5,-12,58,-17,-5,-9,5,17,11,7,-1,-12,-6,7,-7,-9,5
11,31,-15,-30,-1,2,17,54,-1,11,71,8,0,8,-44,-68,5,-12,58,-17,-5,-9,5,17,11,7,-1,-12,-6,7,-7,-9,19,25,-2,23,5,3,-23,12,-13,-22,52,-17,-1,17,39,7,-5,-31,-91,4,-1,-3,-8,-11,-20,6,69,7,-2,-12,16,11,5
19,25,-2,23,5,3,-23,12,-13,-22,52,-17,-1,17,39,7,-5,-31,-91,4,-1,-3,-8,-11,-20,6,69,7,-2,-12,16,11,10,-20,19,-36,-11,-20,-8,-38,8,31,-34,-14,7,10,-18,-14,8,4,-11,28,-3,-6,21,20,-23,-18,49,42,3,-2,-20,-16,5
-13,-22,52,-17,-1,17,39,7,-5,-31,-91,4,-1,-3,-8,-11,-20,6,69,7,-2,-12,16,11,10,-20,19,-36,-11,-20,-8,-38,8,31,-34,-14,7,10,-18,-14,8,4,-11,28,-3,-6,21,20,-23,-18,49,42,3,-2,-20,-16,-3,-35,-37,-7,-4,4,7,-18,5
10,-20,19,-36,-11,-20,-8,-38,8,31,-34,-14,7,10,-18,-14,8,4,-11,28,-3,-6,21,20,-23,-18,49,42,3,-2,-20,-16,-3,-35,-37,-7,-4,4,7,-18,-2,31,-20,-16,-2,4,34,-9,3,4,-32,-61,-4,-7,-30,5,-1,-20,0,-21,-10,-7,16,-7,5
8,4,-11,28,-3,-6,21,20,-23,-18,49,42,3,-2,-20,-16,-3,-35,-37,-7,-4,4,7,-18,-2,31,-20,-16,-2,4,34,-9,3,4,-32,-61,-4,-7,-30,5,-1,-20,0,-21,-10,-7,16,-7,-8,17,30,49,3,-6,-1,9,21,0,-19,-1,6,10,7,10,5
-3,-35,-37,-7,-4,4,7,-18,-2,31,-20,-16,-2,4,34,-9,3,4,-32,-61,-4,-7,-30,5,-1,-20,0,-21,-10,-7,16,-7,-8,17,30,49,3,-6,-1,9,21,0,-19,-1,6,10,7,10,-12,-14,29,31,0,-10,-26,-33,14,-22,-42,-26,0,8,47,24,5
-8,17,30,49,3,-6,-1,9,21,0,-19,-1,6,10,7,10,-12,-14,29,31,0,-10,-26,-33,14,-22,-42,-26,0,8,47,24,-14,-6,-18,8,-8,-37,-28,-22,-3,-13,47,-18,0,29,24,9,-9,12,-17,-11,0,-4,7,11,3,1,-7,-6,-6,-10,-18,-11,5
-12,-14,29,31,0,-10,-26,-33,14,-22,-42,-26,0,8,47,24,-14,-6,-18,8,-8,-37,-28,-22,-3,-13,47,-18,0,29,24,9,-9,12,-17,-11,0,-4,7,11,3,1,-7,-6,-6,-10,-18,-11,-7,-13,52,10,3,-16,-22,13,-4,-20,-26,20,2,27,19,2,5
-14,-6,-18,8,-8,-37,-28,-22,-3,-13,47,-18,0,29,24,9,-9,12,-17,-11,0,-4,7,11,3,1,-7,-6,-6,-10,-18,-11,-7,-13,52,10,3,-16,-22,13,-4,-20,-26,20,2,27,19,2,7,4,-16,29,-5,-7,-24,-20,12,0,12,-70,-11,-2,-38,23,5
-7,-13,52,10,3,-16,-22,13,-4,-20,-26,20,2,27,19,2,7,4,-16,29,-5,-7,-24,-20,12,0,12,-70,-11,-2,-38,23,-32,31,-60,21,8,5,-1,-23,14,-31,37,-8,-2,-11,35,42,-22,-34,-56,-10,-7,-19,12,-27,14,31,33,40,6,12,8,0,5
-7,-13,52,10,3,-16,-22,13,-4,-20,-26,20,2,27,19,2,7,4,-16,29,-5,-7,-24,-20,12,0,12,-70,-11,-2,-38,23,-32,31,-60,21,8,5,-1,-23,14,-31,37,-8,-2,-11,35,42,-22,-34,-56,-10,-7,-19,12,-27,14,31,33,40,6,12,8,0,5
-32,31,-60,21,8,5,-1,-23,14,-31,37,-8,-2,-11,35,42,-22,-34,-56,-10,-7,-19,12,-27,14,31,33,40,6,12,8,0,8,-19,-22,2,1,6,-13,11,-12,-38,-42,14,-4,-6,20,-15,-5,32,14,-25,-3,-1,-6,6,-5,15,-5,-20,-1,-20,-26,-8,5
-22,-34,-56,-10,-7,-19,12,-27,14,31,33,40,6,12,8,0,8,-19,-22,2,1,6,-13,11,-12,-38,-42,14,-4,-6,20,-15,-5,32,14,-25,-3,-1,-6,6,-5,15,-5,-20,-1,-20,-26,-8,-6,-20,40,-45,-9,1,-23,-32,5,12,6,72,6,-1,2,8,5
8,-19,-22,2,1,6,-13,11,-12,-38,-42,14,-4,-6,20,-15,-5,32,14,-25,-3,-1,-6,6,-5,15,-5,-20,-1,-20,-26,-8,-6,-20,40,-45,-9,1,-23,-32,5,12,6,72,6,-1,2,8,18,2,-7,-35,-6,-1,-1,20,-14,3,12,9,-7,-7,14,10,5
-5,32,14,-25,-3,-1,-6,6,-5,15,-5,-20,-1,-20,-26,-8,-6,-20,40,-45,-9,1,-23,-32,5,12,6,72,6,-1,2,8,18,2,-7,-35,-6,-1,-1,20,-14,3,12,9,-7,-7,14,10,8,27,46,10,-2,-16,-51,-18,-4,7,21,-8,2,5,-22,-5,5
-6,-20,40,-45,-9,1,-23,-32,5,12,6,72,6,-1,2,8,18,2,-7,-35,-6,-1,-1,20,-14,3,12,9,-7,-7,14,10,8,27,46,10,-2,-16,-51,-18,-4,7,21,-8,2,5,-22,-5,5,-8,2,10,7,11,0,-7,3,6,12,-6,-1,-2,-1,-5,5
8,27,46,10,-2,-16,-51,-18,-4,7,21,-8,2,5,-22,-5,5,-8,2,10,7,11,0,-7,3,6,12,-6,-1,-2,-1,-5,14,-12,-25,1,0,-1,-5,-1,-5,1,2,-19,-9,-16,-44,-7,-31,-24,-34,-6,0,1,10,6,2,14,-20,17,2,9,-14,10,5
5,-8,2,10,7,11,0,-7,3,6,12,-6,-1,-2,-1,-5,14,-12,-25,1,0,-1,-5,-1,-5,1,2,-19,-9,-16,-44,-7,-31,-24,-34,-6,0,1,10,6,2,14,-20,17,2,9,-14,10,-14,-57,-49,-6,-2,27,24,6,-10,3,-11,-25,-3,-7,10,-9,5
14,-12,-25,1,0,-1,-5,-1,-5,1,2,-19,-9,-16,-44,-7,-31,-24,-34,-6,0,1,10,6,2,14,-20,17,2,9,-14,10,-14,-57,-49,-6,-2,27,24,6,-10,3,-11,-25,-3,-7,10,-9,5,-1,72,38,4,2,4,-2,-22,-14,-68,9,-3,-4,-14,-14,5
-31,-24,-34,-6,0,1,10,6,2,14,-20,17,2,9,-14,10,-14,-57,-49,-6,-2,27,24,6,-10,3,-11,-25,-3,-7,10,-9,5,-1,72,38,4,2,4,-2,-22,-14,-68,9,-3,-4,-14,-14,17,12,-34,-30,-8,-11,12,10,-1,14,17,16,2,6,-1,-3,5
5,-1,72,38,4,2,4,-2,-22,-14,-68,9,-3,-4,-14,-14,17,12,-34,-30,-8,-11,12,10,-1,14,17,16,2,6,-1,-3,0,-11,-94,-1,0,-9,-19,0,-10,-17,81,-15,-2,-1,14,4,13,12,48,8,6,23,23,10,-6,-58,-34,27,-2,-17,36,3,5
17,12,-34,-30,-8,-11,12,10,-1,14,17,16,2,6,-1,-3,0,-11,-94,-1,0,-9,-19,0,-10,-17,81,-15,-2,-1,14,4,13,12,48,8,6,23,23,10,-6,-58,-34,27,-2,-17,36,3,17,66,87,-53,1,-1,-5,-3,5,-8,-80,26,-2,21,22,-7,5
0,-11,-94,-1,0,-9,-19,0,-10,-17,81,-15,-2,-1,14,4,13,12,48,8,6,23,23,10,-6,-58,-34,27,-2,-17,36,3,17,66,87,-53,1,-1,-5,-3,5,-8,-80,26,-2,21,22,-7,-19,-4,-31,-27,-2,3,-2,35,-6,3,23,-17,-8,-5,-31,-51,5
13,12,48,8,6,23,23,10,-6,-58,-34,27,-2,-17,36,3,17,66,87,-53,1,-1,-5,-3,5,-8,-80,26,-2,21,22,-7,-19,-4,-31,-27,-2,3,-2,35,-6,3,23,-17,-8,-5,-31,-51,8,-9,21,-11,-6,0,3,41,11,17,-5,7,9,-30,-3,-1,5
17,66,87,-53,1,-1,-5,-3,5,-8,-80,26,-2,21,22,-7,-19,-4,-31,-27,-2,3,-2,35,-6,3,23,-17,-8,-5,-31,-51,8,-9,21,-11,-6,0,3,41,11,17,-5,7,9,-30,-3,-1,-13,12,-87,-23,-5,22,8,29,10,8,10,9,-3,-5,46,30,5
8,-9,21,-11,-6,0,3,41,11,17,-5,7,9,-30,-3,-1,-13,12,-87,-23,-5,22,8,29,10,8,10,9,-3,-5,46,30,-2,-9,27,15,0,-17,-39,-24,1,-3,28,-15,-3,-5,-32,-10,7,-3,34,40,10,14,41,-2,2,-15,-81,-6,-7,-32,-66,-21,5
-13,12,-87,-23,-5,22,8,29,10,8,10,9,-3,-5,46,30,-2,-9,27,15,0,-17,-39,-24,1,-3,28,-15,-3,-5,-32,-10,7,-3,34,40,10,14,41,-2,2,-15,-81,-6,-7,-32,-66,-21,-1,49,-24,-44,-8,30,73,16,-10,-10,-7,11,-3,-4,3,14,5
-13,12,-87,-23,-5,22,8,29,10,8,10,9,-3,-5,46,30,-2,-9,27,15,0,-17,-39,-24,1,-3,28,-15,-3,-5,-32,-10,7,-3,34,40,10,14,41,-2,2,-15,-81,-6,-7,-32,-66,-21,-1,49,-24,-44,-8,30,73,16,-10,-10,-7,11,-3,-4,3,14,5
7,-3,34,40,10,14,41,-2,2,-15,-81,-6,-7,-32,-66,-21,-1,49,-24,-44,-8,30,73,16,-10,-10,-7,11,-3,-4,3,14,4,-10,26,10,6,-3,-2,-7,-14,2,-16,21,5,8,-18,-29,-11,-10,22,-1,-3,-11,-2,12,14,-23,-22,-8,-7,-9,-27,-10,5
4,-10,26,10,6,-3,-2,-7,-14,2,-16,21,5,8,-18,-29,-11,-10,22,-1,-3,-11,-2,12,14,-23,-22,-8,-7,-9,-27,-10,-18,-8,28,-10,-3,10,-1,-13,23,10,80,19,4,7,16,42,0,15,-14,30,4,-1,-15,-19,20,12,4,-8,8,6,20,6,5
4,-10,26,10,6,-3,-2,-7,-14,2,-16,21,5,8,-18,-29,-11,-10,22,-1,-3,-11,-2,12,14,-23,-22,-8,-7,-9,-27,-10,-18,-8,28,-10,-3,10,-1,-13,23,10,80,19,4,7,16,42,0,15,-14,30,4,-1,-15,-19,20,12,4,-8,8,6,20,6,5
-18,-8,28,-10,-3,10,-1,-13,23,10,80,19,4,7,16,42,0,15,-14,30,4,-1,-15,-19,20,12,4,-8,8,6,20,6,-18,-5,18,-38,-4,-18,-9,-16,-31,-12,32,56,-1,14,1,5,12,-19,-25,-24,1,11,20,-11,9,-2,13,15,5,-10,3,-7,5
0,15,-14,30,4,-1,-15,-19,20,12,4,-8,8,6,20,6,-18,-5,18,-38,-4,-18,-9,-16,-31,-12,32,56,-1,14,1,5,12,-19,-25,-24,1,11,20,-11,9,-2,13,15,5,-10,3,-7,8,40,-7,26,6,16,10,-11,-7,13,-108,-94,-20,-15,3,3,5
-18,-5,18,-38,-4,-18,-9,-16,-31,-12,32,56,-1,14,1,5,12,-19,-25,-24,1,11,20,-11,9,-2,13,15,5,-10,3,-7,8,40,-7,26,6,16,10,-11,-7,13,-108,-94,-20,-15,3,3,-24,-8,62,39,2,-13,-64,-13,12,-3,-12,-16,0,9,32,0,5
12,-19,-25,-24,1,11,20,-11,9,-2,13,15,5,-10,3,-7,8,40,-7,26,6,16,10,-11,-7,13,-108,-94,-20,-15,3,3,-24,-8,62,39,2,-13,-64,-13,12,-3,-12,-16,0,9,32,0,10,39,-17,71,7,12,21,1,-7,9,54,-69,-9,-2,5,-6,5
8,40,-7,26,6,16,10,-11,-7,13,-108,-94,-20,-15,3,3,-24,-8,62,39,2,-13,-64,-13,12,-3,-12,-16,0,9,32,0,10,39,-17,71,7,12,21,1,-7,9,54,-69,-9,-2,5,-6,-12,-36,-11,-5,-3,3,-7,8,7,-3,78,5,0,7,-8,-5,5
10,39,-17,71,7,12,21,1,-7,9,54,-69,-9,-2,5,-6,-12,-36,-11,-5,-3,3,-7,8,7,-3,78,5,0,7,-8,-5,3,22,5,40,0,-9,-26,7,30,-2,-110,-38,2,9,9,5,3,-39,26,15,-3,-5,2,-4,-31,-9,-1,-34,-7,2,-14,-16,5
-12,-36,-11,-5,-3,3,-7,8,7,-3,78,5,0,7,-8,-5,3,22,5,40,0,-9,-26,7,30,-2,-110,-38,2,9,9,5,3,-39,26,15,-3,-5,2,-4,-31,-9,-1,-34,-7,2,-14,-16,12,-13,3,13,-2,-17,11,3,-3,13,29,1,4,-8,-42,2,5
3,22,5,40,0,-9,-26,7,30,-2,-110,-38,2,9,9,5,3,-39,26,15,-3,-5,2,-4,-31,-9,-1,-34,-7,2,-14,-16,12,-13,3,13,-2,-17,11,3,-3,13,29,1,4,-8,-42,2,9,1,-9,11,3,6,48,-16,-5,-15,-69,-9,1,7,6,11,5
12,-13,3,13,-2,-17,11,3,-3,13,29,1,4,-8,-42,2,9,1,-9,11,3,6,48,-16,-5,-15,-69,-9,1,7,6,11,8,2,78,6,-13,-10,-34,-21,7,12,-14,-9,2,-9,-13,6,5,19,14,-26,-5,-1,16,0,-11,-6,-23,2,-2,-5,37,1,5
12,-13,3,13,-2,-17,11,3,-3,13,29,1,4,-8,-42,2,9,1,-9,11,3,6,48,-16,-5,-15,-69,-9,1,7,6,11,8,2,78,6,-13,-10,-34,-21,7,12,-14,-9,2,-9,-13,6,5,19,14,-26,-5,-1,16,0,-11,-6,-23,2,-2,-5,37,1,5
8,2,78,6,-13,-10,-34,-21,7,12,-14,-9,2,-9,-13,6,5,19,14,-26,-5,-1,16,0,-11,-6,-23,2,-2,-5,37,1,-5,11,-32,-14,0,-9,22,10,-11,-14,-5,2,5,3,-21,-8,3,-13,-1,24,-3,-6,-6,2,3,18,11,-4,2,0,-17,-14,5
5,19,14,-26,-5,-1,16,0,-11,-6,-23,2,-2,-5,37,1,-5,11,-32,-14,0,-9,22,10,-11,-14,-5,2,5,3,-21,-8,3,-13,-1,24,-3,-6,-6,2,3,18,11,-4,2,0,-17,-14,-11,-14,51,-8,-1,-18,-24,-24,21,34,1,31,0,7,34,30,5
-5,11,-32,-14,0,-9,22,10,-11,-14,-5,2,5,3,-21,-8,3,-13,-1,24,-3,-6,-6,2,3,18,11,-4,2,0,-17,-14,-11,-14,51,-8,-1,-18,-24,-24,21,34,1,31,0,7,34,30,-21,-29,-110,-10,4,-11,-12,-17,-1,5,63,14,-8,-8,-19,-12,5
-11,-14,51,-8,-1,-18,-24,-24,21,34,1,31,0,7,34,30,-21,-29,-110,-10,4,-11,-12,-17,-1,5,63,14,-8,-8,-19,-12,5,-30,-34,-52,-10,-12,-9,20,-6,3,25,44,4,0,0,-45,-6,2,30,-44,0,7,-11,21,-7,-1,31,28,-2,-9,-12,2,5
-11,-14,51,-8,-1,-18,-24,-24,21,34,1,31,0,7,34,30,-21,-29,-110,-10,4,-11,-12,-17,-1,5,63,14,-8,-8,-19,-12,5,-30,-34,-52,-10,-12,-9,20,-6,3,25,44,4,0,0,-45,-6,2,30,-44,0,7,-11,21,-7,-1,31,28,-2,-9,-12,2,5
5,-30,-34,-52,-10,-12,-9,20,-6,3,25,44,4,0,0,-45,-6,2,30,-44,0,7,-11,21,-7,-1,31,28,-2,-9,-12,2,8,-35,-32,-55,-2,-1,2,11,-9,3,100,30,-10,4,11,7,14,2,-2,9,-1,-10,-23,6,0,18,-55,-11,1,-2,-16,-4,5
8,-35,-32,-55,-2,-1,2,11,-9,3,100,30,-10,4,11,7,14,2,-2,9,-1,-10,-23,6,0,18,-55,-11,1,-2,-16,-4,-15,-11,72,19,4,9,-28,-7,-1,-30,-38,1,11,15,19,6,-8,6,22,18,-7,6,-5,-20,-1,-8,-66,-90,-10,-12,-1,8,5
14,2,-2,9,-1,-10,-23,6,0,18,-55,-11,1,-2,-16,-4,-15,-11,72,19,4,9,-28,-7,-1,-30,-38,1,11,15,19,6,-8,6,22,18,-7,6,-5,-20,-1,-8,-66,-90,-10,-12,-1,8,17,13,-48,31,1,7,6,-18,-3,8,-30,-27,3,7,0,-16,5
-15,-11,72,19,4,9,-28,-7,-1,-30,-38,1,11,15,19,6,-8,6,22,18,-7,6,-5,-20,-1,-8,-66,-90,-10,-12,-1,8,17,13,-48,31,1,7,6,-18,-3,8,-30,-27,3,7,0,-16,8,-7,46,29,-2,-12,-14,6,6,4,-8,19,3,-2,-34,-5,5
-8,6,22,18,-7,6,-5,-20,-1,-8,-66,-90,-10,-12,-1,8,17,13,-48,31,1,7,6,-18,-3,8,-30,-27,3,7,0,-16,8,-7,46,29,-2,-12,-14,6,6,4,-8,19,3,-2,-34,-5,-9,-28,-76,-49,-8,16,7,20,-7,10,45,22,-6,-16,-16,-27,5
17,13,-48,31,1,7,6,-18,-3,8,-30,-27,3,7,0,-16,8,-7,46,29,-2,-12,-14,6,6,4,-8,19,3,-2,-34,-5,-9,-28,-76,-49,-8,16,7,20,-7,10,45,22,-6,-16,-16,-27,2,7,-23,6,5,2,0,-18,8,-1,-14,-16,-4,-1,9,24,5
-9,-28,-76,-49,-8,16,7,20,-7,10,45,22,-6,-16,-16,-27,2,7,-23,6,5,2,0,-18,8,-1,-14,-16,-4,-1,9,24,-14,-5,51,8,2,6,22,13,4,-18,-63,-3,-4,-16,-28,-37,-6,-3,-33,-13,-3,7,6,5,0,1,21,1,6,19,3,-10,5
2,7,-23,6,5,2,0,-18,8,-1,-14,-16,-4,-1,9,24,-14,-5,51,8,2,6,22,13,4,-18,-63,-3,-4,-16,-28,-37,-6,-3,-33,-13,-3,7,6,5,0,1,21,1,6,19,3,-10,-1,0,-3,20,-4,-16,3,10,-7,7,2,22,-2,-3,1,11,5
-14,-5,51,8,2,6,22,13,4,-18,-63,-3,-4,-16,-28,-37,-6,-3,-33,-13,-3,7,6,5,0,1,21,1,6,19,3,-10,-1,0,-3,20,-4,-16,3,10,-7,7,2,22,-2,-3,1,11,2,13,13,-61,-10,-22,-13,-11,-4,-16,-51,14,3,28,21,21,5
-1,0,-3,20,-4,-16,3,10,-7,7,2,22,-2,-3,1,11,2,13,13,-61,-10,-22,-13,-11,-4,-16,-51,14,3,28,21,21,-8,-17,8,58,8,-5,-10,-25,-2,14,-38,-95,-10,-4,-27,14,5,12,12,25,1,5,-3,-13,-9,0,71,18,-2,-14,-5,12,5
-1,0,-3,20,-4,-16,3,10,-7,7,2,22,-2,-3,1,11,2,13,13,-61,-10,-22,-13,-11,-4,-16,-51,14,3,28,21,21,-8,-17,8,58,8,-5,-10,-25,-2,14,-38,-95,-10,-4,-27,14,5,12,12,25,1,5,-3,-13,-9,0,71,18,-2,-14,-5,12,5
-8,-17,8,58,8,-5,-10,-25,-2,14,-38,-95,-10,-4,-27,14,5,12,12,25,1,5,-3,-13,-9,0,71,18,-2,-14,-5,12,-7,-28,-75,-23,3,1,-3,-8,3,6,71,20,3,7,14,50,7,-10,-25,-16,3,-3,-6,3,12,39,9,-16,-3,-5,-8,-19,5
5,12,12,25,1,5,-3,-13,-9,0,71,18,-2,-14,-5,12,-7,-28,-75,-23,3,1,-3,-8,3,6,71,20,3,7,14,50,7,-10,-25,-16,3,-3,-6,3,12,39,9,-16,-3,-5,-8,-19,-2,0,-24,36,-4,3,8,-10,-25,-17,16,17,-6,-11,-14,-26,5
-7,-28,-75,-23,3,1,-3,-8,3,6,71,20,3,7,14,50,7,-10,-25,-16,3,-3,-6,3,12,39,9,-16,-3,-5,-8,-19,-2,0,-24,36,-4,3,8,-10,-25,-17,16,17,-6,-11,-14,-26,6,3,-13,-21,3,0,7,15,-10,2,26,21,-3,2,-17,-4,5
7,-10,-25,-16,3,-3,-6,3,12,39,9,-16,-3,-5,-8,-19,-2,0,-24,36,-4,3,8,-10,-25,-17,16,17,-6,-11,-14,-26,6,3,-13,-21,3,0,7,15,-10,2,26,21,-3,2,-17,-4,9,17,-4,-12,1,-4,13,-6,10,1,8,15,3,-2,25,15,5
-2,0,-24,36,-4,3,8,-10,-25,-17,16,17,-6,-11,-14,-26,6,3,-13,-21,3,0,7,15,-10,2,26,21,-3,2,-17,-4,9,17,-4,-12,1,-4,13,-6,10,1,8,15,3,-2,25,15,-2,8,43,19,0,12,-6,4,-15,-32,-28,1,0,-4,4,-36,5
9,17,-4,-12,1,-4,13,-6,10,1,8,15,3,-2,25,15,-2,8,43,19,0,12,-6,4,-15,-32,-28,1,0,-4,4,-36,-3,8,-20,-10,-9,-20,-33,-16,8,-9,16,-50,-3,-1,12,5,-6,4,-24,-14,-1,4,-11,-7,14,16,-18,8,1,-9,-8,21,5
-2,8,43,19,0,12,-6,4,-15,-32,-28,1,0,-4,4,-36,-3,8,-20,-10,-9,-20,-33,-16,8,-9,16,-50,-3,-1,12,5,-6,4,-24,-14,-1,4,-11,-7,14,16,-18,8,1,-9,-8,21,-17,-28,12,0,-11,-11,41,-4,-6,-19,0,28,11,10,-11,-34,5
-3,8,-20,-10,-9,-20,-33,-16,8,-9,16,-50,-3,-1,12,5,-6,4,-24,-14,-1,4,-11,-7,14,16,-18,8,1,-9,-8,21,-17,-28,12,0,-11,-11,41,-4,-6,-19,0,28,11,10,-11,-34,-2,-26,0,18,-4,4,3,12,-3,-1,-1,6,-3,-3,30,5,5
-6,4,-24,-14,-1,4,-11,-7,14,16,-18,8,1,-9,-8,21,-17,-28,12,0,-11,-11,41,-4,-6,-19,0,28,11,10,-11,-34,-2,-26,0,18,-4,4,3,12,-3,-1,-1,6,-3,-3,30,5,11,18,38,3,7,15,-10,17,5,35,-41,-18,-4,2,-28,-22,5
-17,-28,12,0,-11,-11,41,-4,-6,-19,0,28,11,10,-11,-34,-2,-26,0,18,-4,4,3,12,-3,-1,-1,6,-3,-3,30,5,11,18,38,3,7,15,-10,17,5,35,-41,-18,-4,2,-28,-22,-7,-28,43,44,1,-9,16,21,-22,-20,-22,-44,-11,1,2,-27,5
11,18,38,3,7,15,-10,17,5,35,-41,-18,-4,2,-28,-22,-7,-28,43,44,1,-9,16,21,-22,-20,-22,-44,-11,1,2,-27,28,3,16,9,-1,-6,-29,-6,8,3,4,0,8,2,-13,1,-12,16,-25,-33,-8,-3,3,-4,8,3,83,9,1,-4,-11,0,5
11,18,38,3,7,15,-10,17,5,35,-41,-18,-4,2,-28,-22,-7,-28,43,44,1,-9,16,21,-22,-20,-22,-44,-11,1,2,-27,28,3,16,9,-1,-6,-29,-6,8,3,4,0,8,2,-13,1,-12,16,-25,-33,-8,-3,3,-4,8,3,83,9,1,-4,-11,0,5
28,3,16,9,-1,-6,-29,-6,8,3,4,0,8,2,-13,1,-12,16,-25,-33,-8,-3,3,-4,8,3,83,9,1,-4,-11,0,4,-7,-21,0,-2,-1,-13,36,-4,4,-14,8,-4,1,17,-17,-19,9,-5,24,2,5,8,-5,-5,-10,13,-13,-3,-7,9,-1,5
-12,16,-25,-33,-8,-3,3,-4,8,3,83,9,1,-4,-11,0,4,-7,-21,0,-2,-1,-13,36,-4,4,-14,8,-4,1,17,-17,-19,9,-5,24,2,5,8,-5,-5,-10,13,-13,-3,-7,9,-1,9,13,-3,-14,5,10,-11,-6,17,-17,3,-3,-2,-4,8,23,5
-19,9,-5,24,2,5,8,-5,-5,-10,13,-13,-3,-7,9,-1,9,13,-3,-14,5,10,-11,-6,17,-17,3,-3,-2,-4,8,23,-9,23,-43,48,-2,-9,19,14,-1,15,43,-45,4,13,3,21,-9,-46,23,14,2,-2,7,-21,4,-4,-58,-28,-5,5,37,13,5
9,13,-3,-14,5,10,-11,-6,17,-17,3,-3,-2,-4,8,23,-9,23,-43,48,-2,-9,19,14,-1,15,43,-45,4,13,3,21,-9,-46,23,14,2,-2,7,-21,4,-4,-58,-28,-5,5,37,13,7,-4,44,10,1,-2,-13,-12,-6,-10,-40,11,-1,-6,-22,-7,5
9,13,-3,-14,5,10,-11,-6,17,-17,3,-3,-2,-4,8,23,-9,23,-43,48,-2,-9,19,14,-1,15,43,-45,4,13,3,21,-9,-46,23,14,2,-2,7,-21,4,-4,-58,-28,-5,5,37,13,7,-4,44,10,1,-2,-13,-12,-6,-10,-40,11,-1,-6,-22,-7,5
-9,23,-43,48,-2,-9,19,14,-1,15,43,-45,4,13,3,21,-9,-46,23,14,2,-2,7,-21,4,-4,-58,-28,-5,5,37,13,7,-4,44,10,1,-2,-13,-12,-6,-10,-40,11,-1,-6,-22,-7,-13,22,36,4,-1,2,14,53,23,-1,-33,4,0,-6,-13,-14,5
4,-4,-58,-28,-5,5,37,13,7,-4,44,10,1,-2,-13,-12,-6,-10,-40,11,-1,-6,-22,-7,-13,22,36,4,-1,2,14,53,23,-1,-33,4,0,-6,-13,-14,-1,26,12,-27,-9,-11,-19,-24,-2,-30,1,20,1,-6,1,7,-9,11,51,-10,-1,-5,-7,-8,5
-13,22,36,4,-1,2,14,53,23,-1,-33,4,0,-6,-13,-14,-1,26,12,-27,-9,-11,-19,-24,-2,-30,1,20,1,-6,1,7,-9,11,51,-10,-1,-5,-7,-8,-12,5,27,32,-5,-5,20,19,16,-4,-66,-80,2,2,-6,3,-15,17,-9,41,3,-6,-16,-19,5
-9,11,51,-10,-1,-5,-7,-8,-12,5,27,32,-5,-5,20,19,16,-4,-66,-80,2,2,-6,3,-15,17,-9,41,3,-6,-16,-19,-25,-17,-51,-39,-5,8,52,-19,-9,4,43,22,3,-2,-4,9,16,-11,31,11,-1,-3,-4,12,2,-2,-68,-28,-3,3,-26,0,5
16,-4,-66,-80,2,2,-6,3,-15,17,-9,41,3,-6,-16,-19,-25,-17,-51,-39,-5,8,52,-19,-9,4,43,22,3,-2,-4,9,16,-11,31,11,-1,-3,-4,12,2,-2,-68,-28,-3,3,-26,0,-9,0,4,-2,1,4,13,-18,-11,5,8,-7,-5,-1,7,5,5
-25,-17,-51,-39,-5,8,52,-19,-9,4,43,22,3,-2,-4,9,16,-11,31,11,-1,-3,-4,12,2,-2,-68,-28,-3,3,-26,0,-9,0,4,-2,1,4,13,-18,-11,5,8,-7,-5,-1,7,5,-15,-22,-14,35,3,7,-1,-18,10,16,-42,1,-5,-3,2,10,5
-9,0,4,-2,1,4,13,-18,-11,5,8,-7,-5,-1,7,5,-15,-22,-14,35,3,7,-1,-18,10,16,-42,1,-5,-3,2,10,8,10,-8,-39,-3,-11,-1,-5,-2,-25,-38,4,-1,8,1,2,-6,3,33,21,-2,-4,7,-3,0,-3,80,25,1,-4,3,-7,5
-15,-22,-14,35,3,7,-1,-18,10,16,-42,1,-5,-3,2,10,8,10,-8,-39,-3,-11,-1,-5,-2,-25,-38,4,-1,8,1,2,-6,3,33,21,-2,-4,7,-3,0,-3,80,25,1,-4,3,-7,2,-13,-8,-4,-6,-1,1,-5,-11,-14,-17,-23,-5,-14,-19,0,5
-15,-22,-14,35,3,7,-1,-18,10,16,-42,1,-5,-3,2,10,8,10,-8,-39,-3,-11,-1,-5,-2,-25,-38,4,-1,8,1,2,-6,3,33,21,-2,-4,7,-3,0,-3,80,25,1,-4,3,-7,2,-13,-8,-4,-6,-1,1,-5,-11,-14,-17,-23,-5,-14,-19,0,5
-6,3,33,21,-2,-4,7,-3,0,-3,80,25,1,-4,3,-7,2,-13,-8,-4,-6,-1,1,-5,-11,-14,-17,-23,-5,-14,-19,0,-4,39,-5,5,0,13,-8,-4,21,-20,-11,-20,2,0,13,5,-13,14,16,22,-4,2,5,-8,3,-37,14,-45,-2,-5,-51,-8,5
2,-13,-8,-4,-6,-1,1,-5,-11,-14,-17,-23,-5,-14,-19,0,-4,39,-5,5,0,13,-8,-4,21,-20,-11,-20,2,0,13,5,-13,14,16,22,-4,2,5,-8,3,-37,14,-45,-2,-5,-51,-8,6,8,31,20,0,6,47,77,-10,-5,-47,23,5,3,21,-56,5
-13,14,16,22,-4,2,5,-8,3,-37,14,-45,-2,-5,-51,-8,6,8,31,20,0,6,47,77,-10,-5,-47,23,5,3,21,-56,7,5,24,-1,1,-4,-5,-5,12,21,-1,23,-2,-9,-16,3,-6,-19,4,-12,-4,-7,-12,-18,6,5,8,5,-1,-5,-1,21,5
6,8,31,20,0,6,47,77,-10,-5,-47,23,5,3,21,-56,7,5,24,-1,1,-4,-5,-5,12,21,-1,23,-2,-9,-16,3,-6,-19,4,-12,-4,-7,-12,-18,6,5,8,5,-1,-5,-1,21,1,26,-23,-20,1,9,7,-4,-9,-37,-6,-6,4,9,32,-1,5
7,5,24,-1,1,-4,-5,-5,12,21,-1,23,-2,-9,-16,3,-6,-19,4,-12,-4,-7,-12,-18,6,5,8,5,-1,-5,-1,21,1,26,-23,-20,1,9,7,-4,-9,-37,-6,-6,4,9,32,-1,-5,-18,1,-13,1,-5,-6,-17,-3,-9,49,46,0,4,9,11,5
-6,-19,4,-12,-4,-7,-12,-18,6,5,8,5,-1,-5,-1,21,1,26,-23,-20,1,9,7,-4,-9,-37,-6,-6,4,9,32,-1,-5,-18,1,-13,1,-5,-6,-17,-3,-9,49,46,0,4,9,11,0,-12,-15,-67,0,0,-13,-9,4,30,-11,-30,-3,-7,12,15,5
1,26,-23,-20,1,9,7,-4,-9,-37,-6,-6,4,9,32,-1,-5,-18,1,-13,1,-5,-6,-17,-3,-9,49,46,0,4,9,11,0,-12,-15,-67,0,0,-13,-9,4,30,-11,-30,-3,-7,12,15,10,-16,-26,15,-6,-5,-7,-17,-6,23,3,31,5,13,13,-3,5
-5,-18,1,-13,1,-5,-6,-17,-3,-9,49,46,0,4,9,11,0,-12,-15,-67,0,0,-13,-9,4,30,-11,-30,-3,-7,12,15,10,-16,-26,15,-6,-5,-7,-17,-6,23,3,31,5,13,13,-3,-4,-23,-5,24,-6,-7,-11,16,-6,9,31,2,0,-4,14,-6,5
10,-16,-26,15,-6,-5,-7,-17,-6,23,3,31,5,13,13,-3,-4,-23,-5,24,-6,-7,-11,16,-6,9,31,2,0,-4,14,-6,7,-8,-76,-31,0,-1,-13,21,-12,23,41,10,-2,0,0,-1,-8,-20,-60,-31,-4,-4,-21,-14,4,-3,-16,3,-1,-2,7,33,5
-4,-23,-5,24,-6,-7,-11,16,-6,9,31,2,0,-4,14,-6,7,-8,-76,-31,0,-1,-13,21,-12,23,41,10,-2,0,0,-1,-8,-20,-60,-31,-4,-4,-21,-14,4,-3,-16,3,-1,-2,7,33,-12,-10,24,22,-1,-4,-16,-50,11,5,34,-34,-1,-1,-2,20,5
7,-8,-76,-31,0,-1,-13,21,-12,23,41,10,-2,0,0,-1,-8,-20,-60,-31,-4,-4,-21,-14,4,-3,-16,3,-1,-2,7,33,-12,-10,24,22,-1,-4,-16,-50,11,5,34,-34,-1,-1,-2,20,9,12,30,64,5,2,5,-10,-6,0,-62,-41,-6,-1,-12,4,5
-8,-20,-60,-31,-4,-4,-21,-14,4,-3,-16,3,-1,-2,7,33,-12,-10,24,22,-1,-4,-16,-50,11,5,34,-34,-1,-1,-2,20,9,12,30,64,5,2,5,-10,-6,0,-62,-41,-6,-1,-12,4,-1,-4,-34,-19,-4,-1,-19,-2,-2,-8,-24,4,4,3,14,-11,5
-12,-10,24,22,-1,-4,-16,-50,11,5,34,-34,-1,-1,-2,20,9,12,30,64,5,2,5,-10,-6,0,-62,-41,-6,-1,-12,4,-1,-4,-34,-19,-4,-1,-19,-2,-2,-8,-24,4,4,3,14,-11,2,-31,7,12,-3,-17,-29,15,12,52,-26,-38,-6,2,-1,-7,5
-1,-4,-34,-19,-4,-1,-19,-2,-2,-8,-24,4,4,3,14,-11,2,-31,7,12,-3,-17,-29,15,12,52,-26,-38,-6,2,-1,-7,-8,-28,13,11,0,0,5,-11,-21,-27,19,16,2,-10,-4,-19,21,12,-31,18,5,10,9,11,-6,-31,49,15,-11,-10,-1,-21,5
2,-31,7,12,-3,-17,-29,15,12,52,-26,-38,-6,2,-1,-7,-8,-28,13,11,0,0,5,-11,-21,-27,19,16,2,-10,-4,-19,21,12,-31,18,5,10,9,11,-6,-31,49,15,-11,-10,-1,-21,3,19,-3,-13,3,4,9,-4,-1,-10,-13,-26,-7,-8,-5,12,5
-8,-28,13,11,0,0,5,-11,-21,-27,19,16,2,-10,-4,-19,21,12,-31,18,5,10,9,11,-6,-31,49,15,-11,-10,-1,-21,3,19,-3,-13,3,4,9,-4,-1,-10,-13,-26,-7,-8,-5,12,7,11,2,16,0,-5,-3,-7,-5,8,-11,40,7,5,-1,-19,5
21,12,-31,18,5,10,9,11,-6,-31,49,15,-11,-10,-1,-21,3,19,-3,-13,3,4,9,-4,-1,-10,-13,-26,-7,-8,-5,12,7,11,2,16,0,-5,-3,-7,-5,8,-11,40,7,5,-1,-19,3,11,9,-47,-2,-2,1,8,-8,-8,-36,-26,-3,-1,-8,-3,5
3,19,-3,-13,3,4,9,-4,-1,-10,-13,-26,-7,-8,-5,12,7,11,2,16,0,-5,-3,-7,-5,8,-11,40,7,5,-1,-19,3,11,9,-47,-2,-2,1,8,-8,-8,-36,-26,-3,-1,-8,-3,3,11,27,28,0,0,2,-2,9,0,49,25,0,6,2,3,5
3,11,9,-47,-2,-2,1,8,-8,-8,-36,-26,-3,-1,-8,-3,3,11,27,28,0,0,2,-2,9,0,49,25,0,6,2,3,-14,-9,10,16,-7,-12,-2,-2,8,0,-7,-35,-4,-1,-5,15,-8,9,-17,-16,-3,10,12,-19,-8,-14,24,12,1,-4,-4,13,5
3,11,27,28,0,0,2,-2,9,0,49,25,0,6,2,3,-14,-9,10,16,-7,-12,-2,-2,8,0,-7,-35,-4,-1,-5,15,-8,9,-17,-16,-3,10,12,-19,-8,-14,24,12,1,-4,-4,13,-4,-19,5,6,4,8,7,-10,6,17,26,29,-2,-4,-15,-12,5
-14,-9,10,16,-7,-12,-2,-2,8,0,-7,-35,-4,-1,-5,15,-8,9,-17,-16,-3,10,12,-19,-8,-14,24,12,1,-4,-4,13,-4,-19,5,6,4,8,7,-10,6,17,26,29,-2,-4,-15,-12,-2,-11,-16,3,-1,-6,16,2,-2,14,0,-38,-2,8,-8,-14,5
-8,9,-17,-16,-3,10,12,-19,-8,-14,24,12,1,-4,-4,13,-4,-19,5,6,4,8,7,-10,6,17,26,29,-2,-4,-15,-12,-2,-11,-16,3,-1,-6,16,2,-2,14,0,-38,-2,8,-8,-14,4,2,7,-3,3,7,24,28,0,-26,-53,-18,-7,1,-4,-18,5
-2,-11,-16,3,-1,-6,16,2,-2,14,0,-38,-2,8,-8,-14,4,2,7,-3,3,7,24,28,0,-26,-53,-18,-7,1,-4,-18,-7,27,69,-2,-2,-8,-12,-9,-14,-24,-78,10,0,-2,7,7,-4,-18,24,8,1,-3,-15,-14,5,9,-4,-26,-2,-1,-8,4,5
-2,-11,-16,3,-1,-6,16,2,-2,14,0,-38,-2,8,-8,-14,4,2,7,-3,3,7,24,28,0,-26,-53,-18,-7,1,-4,-18,-7,27,69,-2,-2,-8,-12,-9,-14,-24,-78,10,0,-2,7,7,-4,-18,24,8,1,-3,-15,-14,5,9,-4,-26,-2,-1,-8,4,5
-7,27,69,-2,-2,-8,-12,-9,-14,-24,-78,10,0,-2,7,7,-4,-18,24,8,1,-3,-15,-14,5,9,-4,-26,-2,-1,-8,4,12,-3,38,27,5,6,4,19,-3,3,-9,-14,-2,-5,-9,-22,-2,12,4,-7,-2,-2,-1,-1,-9,-19,-34,58,5,-2,1,-13,5
-4,-18,24,8,1,-3,-15,-14,5,9,-4,-26,-2,-1,-8,4,12,-3,38,27,5,6,4,19,-3,3,-9,-14,-2,-5,-9,-22,-2,12,4,-7,-2,-2,-1,-1,-9,-19,-34,58,5,-2,1,-13,17,16,22,-84,-8,3,7,13,2,-6,8,18,5,2,12,10,5
12,-3,38,27,5,6,4,19,-3,3,-9,-14,-2,-5,-9,-22,-2,12,4,-7,-2,-2,-1,-1,-9,-19,-34,58,5,-2,1,-13,17,16,22,-84,-8,3,7,13,2,-6,8,18,5,2,12,10,-4,2,7,-2,-8,-14,-10,0,17,23,-5,0,0,5,-2,1,5
17,16,22,-84,-8,3,7,13,2,-6,8,18,5,2,12,10,-4,2,7,-2,-8,-14,-10,0,17,23,-5,0,0,5,-2,1,-19,19,-33,7,2,0,-22,4,-15,-28,3,-8,-2,-3,11,-9,-1,-9,9,41,-3,-2,2,8,0,1,-18,-20,-5,-9,7,-23,5
17,16,22,-84,-8,3,7,13,2,-6,8,18,5,2,12,10,-4,2,7,-2,-8,-14,-10,0,17,23,-5,0,0,5,-2,1,-19,19,-33,7,2,0,-22,4,-15,-28,3,-8,-2,-3,11,-9,-1,-9,9,41,-3,-2,2,8,0,1,-18,-20,-5,-9,7,-23,5
-19,19,-33,7,2,0,-22,4,-15,-28,3,-8,-2,-3,11,-9,-1,-9,9,41,-3,-2,2,8,0,1,-18,-20,-5,-9,7,-23,4,3,-35,18,3,4,9,-13,13,20,18,-13,-6,-8,-12,14,1,3,-8,-20,2,2,-1,-5,1,7,42,13,-4,2,11,36,5
-1,-9,9,41,-3,-2,2,8,0,1,-18,-20,-5,-9,7,-23,4,3,-35,18,3,4,9,-13,13,20,18,-13,-6,-8,-12,14,1,3,-8,-20,2,2,-1,-5,1,7,42,13,-4,2,11,36,-10,9,-20,-5,0,-1,-3,-26,-5,-19,38,37,3,0,3,-10,5
4,3,-35,18,3,4,9,-13,13,20,18,-13,-6,-8,-12,14,1,3,-8,-20,2,2,-1,-5,1,7,42,13,-4,2,11,36,-10,9,-20,-5,0,-1,-3,-26,-5,-19,38,37,3,0,3,-10,11,1,-46,-22,2,0,-3,16,-6,-10,6,2,-1,-3,0,1,5
1,3,-8,-20,2,2,-1,-5,1,7,42,13,-4,2,11,36,-10,9,-20,-5,0,-1,-3,-26,-5,-19,38,37,3,0,3,-10,11,1,-46,-22,2,0,-3,16,-6,-10,6,2,-1,-3,0,1,1,-9,-49,9,0,1,20,10,-1,12,9,-56,-5,0,-3,-3,5
-10,9,-20,-5,0,-1,-3,-26,-5,-19,38,37,3,0,3,-10,11,1,-46,-22,2,0,-3,16,-6,-10,6,2,-1,-3,0,1,1,-9,-49,9,0,1,20,10,-1,12,9,-56,-5,0,-3,-3,-1,14,50,52,6,-3,-13,-10,1,-11,-14,1,6,6,4,13,5
1,-9,-49,9,0,1,20,10,-1,12,9,-56,-5,0,-3,-3,-1,14,50,52,6,-3,-13,-10,1,-11,-14,1,6,6,4,13,-6,-9,-13,-42,-8,-3,-19,-44,-2,-5,-48,21,10,6,14,15,1,0,-26,-28,-11,-24,-13,-11,3,12,69,16,0,24,-10,12,5
-1,14,50,52,6,-3,-13,-10,1,-11,-14,1,6,6,4,13,-6,-9,-13,-42,-8,-3,-19,-44,-2,-5,-48,21,10,6,14,15,1,0,-26,-28,-11,-24,-13,-11,3,12,69,16,0,24,-10,12,-5,-21,-75,11,-2,0,-1,27,6,15,33,-29,-8,8,10,-13,5
-6,-9,-13,-42,-8,-3,-19,-44,-2,-5,-48,21,10,6,14,15,1,0,-26,-28,-11,-24,-13,-11,3,12,69,16,0,24,-10,12,-5,-21,-75,11,-2,0,-1,27,6,15,33,-29,-8,8,10,-13,-4,8,-14,-16,0,2,13,9,-27,-13,-4,7,-5,-10,3,55,5
-5,-21,-75,11,-2,0,-1,27,6,15,33,-29,-8,8,10,-13,-4,8,-14,-16,0,2,13,9,-27,-13,-4,7,-5,-10,3,55,25,5,69,17,-6,-15,-36,-35,17,3,-37,3,-1,-7,-4,5,-27,14,3,18,-1,6,6,-10,9,-4,20,-18,2,-1,0,25,5
-5,-21,-75,11,-2,0,-1,27,6,15,33,-29,-8,8,10,-13,-4,8,-14,-16,0,2,13,9,-27,-13,-4,7,-5,-10,3,55,25,5,69,17,-6,-15,-36,-35,17,3,-37,3,-1,-7,-4,5,-27,14,3,18,-1,6,6,-10,9,-4,20,-18,2,-1,0,25,5
25,5,69,17,-6,-15,-36,-35,17,3,-37,3,-1,-7,-4,5,-27,14,3,18,-1,6,6,-10,9,-4,20,-18,2,-1,0,25,-17,-19,-53,-1,-6,0,14,-6,-2,9,-55,-47,-3,-10,-26,-3,15,7,59,20,1,1,-8,-19,12,4,-56,-18,0,-6,0,14,5
-27,14,3,18,-1,6,6,-10,9,-4,20,-18,2,-1,0,25,-17,-19,-53,-1,-6,0,14,-6,-2,9,-55,-47,-3,-10,-26,-3,15,7,59,20,1,1,-8,-19,12,4,-56,-18,0,-6,0,14,-9,17,33,-2,3,11,-4,5,-10,-25,50,29,0,-14,-17,-18,5
-17,-19,-53,-1,-6,0,14,-6,-2,9,-55,-47,-3,-10,-26,-3,15,7,59,20,1,1,-8,-19,12,4,-56,-18,0,-6,0,14,-9,17,33,-2,3,11,-4,5,-10,-25,50,29,0,-14,-17,-18,-8,-13,-47,-27,-14,9,-7,6,-5,-17,-16,3,3,4,27,-31,5
-9,17,33,-2,3,11,-4,5,-10,-25,50,29,0,-14,-17,-18,-8,-13,-47,-27,-14,9,-7,6,-5,-17,-16,3,3,4,27,-31,18,21,90,7,8,-7,-14,11,-4,0,-25,10,-3,-1,9,3,-5,-14,-23,-22,-1,2,1,-2,15,7,31,12,0,-7,-20,-12,5
-9,17,33,-2,3,11,-4,5,-10,-25,50,29,0,-14,-17,-18,-8,-13,-47,-27,-14,9,-7,6,-5,-17,-16,3,3,4,27,-31,18,21,90,7,8,-7,-14,11,-4,0,-25,10,-3,-1,9,3,-5,-14,-23,-22,-1,2,1,-2,15,7,31,12,0,-7,-20,-12,5
18,21,90,7,8,-7,-14,11,-4,0,-25,10,-3,-1,9,3,-5,-14,-23,-22,-1,2,1,-2,15,7,31,12,0,-7,-20,-12,-8,2,-21,2,4,4,21,-1,-5,-1,-4,15,-11,-3,0,-7,6,1,22,7,3,-6,8,0,-3,21,-5,10,1,-5,-26,-30,5
-8,2,-21,2,4,4,21,-1,-5,-1,-4,15,-11,-3,0,-7,6,1,22,7,3,-6,8,0,-3,21,-5,10,1,-5,-26,-30,-10,-35,-16,0,-8,-11,17,37,2,-10,19,4,-1,5,9,-1,-2,6,-16,-10,3,-4,-6,10,-1,10,-38,-23,-8,-4,10,4,5
-8,2,-21,2,4,4,21,-1,-5,-1,-4,15,-11,-3,0,-7,6,1,22,7,3,-6,8,0,-3,21,-5,10,1,-5,-26,-30,-10,-35,-16,0,-8,-11,17,37,2,-10,19,4,-1,5,9,-1,-2,6,-16,-10,3,-4,-6,10,-1,10,-38,-23,-8,-4,10,4,5
-10,-35,-16,0,-8,-11,17,37,2,-10,19,4,-1,5,9,-1,-2,6,-16,-10,3,-4,-6,10,-1,10,-38,-23,-8,-4,10,4,-15,-10,48,1,1,13,-4,-3,-2,7,-11,3,0,-3,10,13,16,-1,39,7,0,3,1,-19,-7,0,6,31,-2,-6,-18,-12,5
-10,-35,-16,0,-8,-11,17,37,2,-10,19,4,-1,5,9,-1,-2,6,-16,-10,3,-4,-6,10,-1,10,-38,-23,-8,-4,10,4,-15,-10,48,1,1,13,-4,-3,-2,7,-11,3,0,-3,10,13,16,-1,39,7,0,3,1,-19,-7,0,6,31,-2,-6,-18,-12,5
-15,-10,48,1,1,13,-4,-3,-2,7,-11,3,0,-3,10,13,16,-1,39,7,0,3,1,-19,-7,0,6,31,-2,-6,-18,-12,-19,-1,-42,-62,-7,-7,21,-2,2,-3,3,-2,0,-2,-3,-8,-9,-1,-14,5,5,5,-2,3,-1,2,22,-15,-4,-5,-6,-3,5
-19,-1,-42,-62,-7,-7,21,-2,2,-3,3,-2,0,-2,-3,-8,-9,-1,-14,5,5,5,-2,3,-1,2,22,-15,-4,-5,-6,-3,17,2,8,32,5,0,-1,-2,-27,-11,-32,4,-5,-4,-21,-9,0,3,-12,-21,-4,-9,-1,4,-11,-9,-52,-19,-4,-1,9,-8,5
-19,-1,-42,-62,-7,-7,21,-2,2,-3,3,-2,0,-2,-3,-8,-9,-1,-14,5,5,5,-2,3,-1,2,22,-15,-4,-5,-6,-3,17,2,8,32,5,0,-1,-2,-27,-11,-32,4,-5,-4,-21,-9,0,3,-12,-21,-4,-9,-1,4,-11,-9,-52,-19,-4,-1,9,-8,5
-9,-1,-14,5,5,5,-2,3,-1,2,22,-15,-4,-5,-6,-3,17,2,8,32,5,0,-1,-2,-27,-11,-32,4,-5,-4,-21,-9,0,3,-12,-21,-4,-9,-1,4,-11,-9,-52,-19,-4,-1,9,-8,19,-4,-20,-7,0,-3,-7,8,2,13,45,4,7,8,9,8,5
17,2,8,32,5,0,-1,-2,-27,-11,-32,4,-5,-4,-21,-9,0,3,-12,-21,-4,-9,-1,4,-11,-9,-52,-19,-4,-1,9,-8,19,-4,-20,-7,0,-3,-7,8,2,13,45,4,7,8,9,8,3,-15,-26,19,-1,1,-6,-4,0,0,7,-27,-1,2,-4,-7,5
3,-15,-26,19,-1,1,-6,-4,0,0,7,-27,-1,2,-4,-7,-5,-2,2,-2,-8,-9,-15,-6,2,-6,9,9,1,2,-9,6,-11,-9,-7,-34,-3,-5,-4,-34,6,-1,21,14,3,2,1,12,8,8,20,6,1,-3,-1,15,9,13,40,27,3,12,10,36,5
-5,-2,2,-2,-8,-9,-15,-6,2,-6,9,9,1,2,-9,6,-11,-9,-7,-34,-3,-5,-4,-34,6,-1,21,14,3,2,1,12,8,8,20,6,1,-3,-1,15,9,13,40,27,3,12,10,36,1,-18,-67,-9,-10,-16,-30,-39,-34,-17,-8,-22,-4,2,12,-4,5
-11,-9,-7,-34,-3,-5,-4,-34,6,-1,21,14,3,2,1,12,8,8,20,6,1,-3,-1,15,9,13,40,27,3,12,10,36,1,-18,-67,-9,-10,-16,-30,-39,-34,-17,-8,-22,-4,2,12,-4,-13,-31,-25,-15,-4,-2,-3,12,1,8,25,13,-2,-6,-1,-1,5
-11,-9,-7,-34,-3,-5,-4,-34,6,-1,21,14,3,2,1,12,8,8,20,6,1,-3,-1,15,9,13,40,27,3,12,10,36,1,-18,-67,-9,-10,-16,-30,-39,-34,-17,-8,-22,-4,2,12,-4,-13,-31,-25,-15,-4,-2,-3,12,1,8,25,13,-2,-6,-1,-1,5
8,8,20,6,1,-3,-1,15,9,13,40,27,3,12,10,36,1,-18,-67,-9,-10,-16,-30,-39,-34,-17,-8,-22,-4,2,12,-4,-13,-31,-25,-15,-4,-2,-3,12,1,8,25,13,-2,-6,-1,-1,20,11,-27,-4,8,7,9,10,-6,32,79,60,3,1,0,-4,5
20,11,-27,-4,8,7,9,10,-6,32,79,60,3,1,0,-4,-2,-14,-59,-71,-16,-11,-6,-14,-4,1,21,-15,0,-9,-17,-10,-3,-7,12,28,-1,0,11,9,13,3,-46,-70,-3,4,-4,-2,-3,1,28,24,5,13,21,11,-1,-5,19,-2,-3,-3,3,-25,5
-2,-14,-59,-71,-16,-11,-6,-14,-4,1,21,-15,0,-9,-17,-10,-3,-7,12,28,-1,0,11,9,13,3,-46,-70,-3,4,-4,-2,-3,1,28,24,5,13,21,11,-1,-5,19,-2,-3,-3,3,-25,3,-5,-53,-23,0,-10,-17,5,8,-6,5,33,1,7,14,15,5
-3,-7,12,28,-1,0,11,9,13,3,-46,-70,-3,4,-4,-2,-3,1,28,24,5,13,21,11,-1,-5,19,-2,-3,-3,3,-25,3,-5,-53,-23,0,-10,-17,5,8,-6,5,33,1,7,14,15,-10,14,18,14,2,2,-4,-30,-22,-1,-59,-9,0,-2,-6,1,5
-3,1,28,24,5,13,21,11,-1,-5,19,-2,-3,-3,3,-25,3,-5,-53,-23,0,-10,-17,5,8,-6,5,33,1,7,14,15,-10,14,18,14,2,2,-4,-30,-22,-1,-59,-9,0,-2,-6,1,3,-36,44,14,1,4,-5,17,8,-3,-2,-17,-5,-4,-1,-18,5
-10,14,18,14,2,2,-4,-30,-22,-1,-59,-9,0,-2,-6,1,3,-36,44,14,1,4,-5,17,8,-3,-2,-17,-5,-4,-1,-18,0,15,36,20,-1,-5,-11,-16,6,2,-54,-2,2,-1,-1,-2,-16,13,26,45,6,6,-9,13,5,-3,-33,-77,-9,-22,-10,-1,5
3,-36,44,14,1,4,-5,17,8,-3,-2,-17,-5,-4,-1,-18,0,15,36,20,-1,-5,-11,-16,6,2,-54,-2,2,-1,-1,-2,-16,13,26,45,6,6,-9,13,5,-3,-33,-77,-9,-22,-10,-1,4,-14,-17,-6,-1,20,7,-12,0,-8,47,13,0,7,6,16,5
0,15,36,20,-1,-5,-11,-16,6,2,-54,-2,2,-1,-1,-2,-16,13,26,45,6,6,-9,13,5,-3,-33,-77,-9,-22,-10,-1,4,-14,-17,-6,-1,20,7,-12,0,-8,47,13,0,7,6,16,2,11,28,-16,-5,0,-1,1,2,-5,5,10,1,3,10,52,5
-16,13,26,45,6,6,-9,13,5,-3,-33,-77,-9,-22,-10,-1,4,-14,-17,-6,-1,20,7,-12,0,-8,47,13,0,7,6,16,2,11,28,-16,-5,0,-1,1,2,-5,5,10,1,3,10,52,-11,-13,-10,27,4,-7,-35,-64,-6,-3,39,-8,-5,-11,28,36,5
4,-14,-17,-6,-1,20,7,-12,0,-8,47,13,0,7,6,16,2,11,28,-16,-5,0,-1,1,2,-5,5,10,1,3,10,52,-11,-13,-10,27,4,-7,-35,-64,-6,-3,39,-8,-5,-11,28,36,0,5,-11,-30,2,10,12,-17,2,5,32,35,-3,-8,-30,-10,5
-11,-13,-10,27,4,-7,-35,-64,-6,-3,39,-8,-5,-11,28,36,0,5,-11,-30,2,10,12,-17,2,5,32,35,-3,-8,-30,-10,-15,13,0,-12,4,13,21,26,7,-15,-41,32,-3,-1,-13,-15,-7,-10,18,-35,-9,-14,-18,3,-14,3,7,-17,-1,6,7,-28,5
0,5,-11,-30,2,10,12,-17,2,5,32,35,-3,-8,-30,-10,-15,13,0,-12,4,13,21,26,7,-15,-41,32,-3,-1,-13,-15,-7,-10,18,-35,-9,-14,-18,3,-14,3,7,-17,-1,6,7,-28,16,14,12,22,1,-5,3,19,2,-1,-6,11,-1,4,13,-17,5
-15,13,0,-12,4,13,21,26,7,-15,-41,32,-3,-1,-13,-15,-7,-10,18,-35,-9,-14,-18,3,-14,3,7,-17,-1,6,7,-28,16,14,12,22,1,-5,3,19,2,-1,-6,11,-1,4,13,-17,-4,-4,5,17,-1,-12,-10,-7,-2,-21,-90,-15,-4,-1,-8,-12,5
-7,-10,18,-35,-9,-14,-18,3,-14,3,7,-17,-1,6,7,-28,16,14,12,22,1,-5,3,19,2,-1,-6,11,-1,4,13,-17,-4,-4,5,17,-1,-12,-10,-7,-2,-21,-90,-15,-4,-1,-8,-12,-5,7,63,-3,-1,-5,1,0,-2,0,11,-24,-4,1,-15,-22,5
16,14,12,22,1,-5,3,19,2,-1,-6,11,-1,4,13,-17,-4,-4,5,17,-1,-12,-10,-7,-2,-21,-90,-15,-4,-1,-8,-12,-5,7,63,-3,-1,-5,1,0,-2,0,11,-24,-4,1,-15,-22,-4,5,36,21,-5,-15,1,5,27,-2,12,10,2,14,6,21,5
-5,7,63,-3,-1,-5,1,0,-2,0,11,-24,-4,1,-15,-22,-4,5,36,21,-5,-15,1,5,27,-2,12,10,2,14,6,21,20,3,-16,9,0,0,-9,-10,-24,7,12,-12,3,-7,4,8,-6,-13,-25,-35,0,6,-3,-16,-5,-7,-6,20,1,-7,7,18,5
-4,5,36,21,-5,-15,1,5,27,-2,12,10,2,14,6,21,20,3,-16,9,0,0,-9,-10,-24,7,12,-12,3,-7,4,8,-6,-13,-25,-35,0,6,-3,-16,-5,-7,-6,20,1,-7,7,18,7,4,-17,11,-3,-13,-7,49,9,9,4,-22,-1,-3,-42,-48,5
20,3,-16,9,0,0,-9,-10,-24,7,12,-12,3,-7,4,8,-6,-13,-25,-35,0,6,-3,-16,-5,-7,-6,20,1,-7,7,18,7,4,-17,11,-3,-13,-7,49,9,9,4,-22,-1,-3,-42,-48,-1,7,8,-19,5,18,11,1,-3,-11,15,13,3,6,14,-6,5
-6,-13,-25,-35,0,6,-3,-16,-5,-7,-6,20,1,-7,7,18,7,4,-17,11,-3,-13,-7,49,9,9,4,-22,-1,-3,-42,-48,-1,7,8,-19,5,18,11,1,-3,-11,15,13,3,6,14,-6,-13,0,-82,-15,-8,-14,-19,-13,6,-18,20,9,1,-4,7,3,5
7,4,-17,11,-3,-13,-7,49,9,9,4,-22,-1,-3,-42,-48,-1,7,8,-19,5,18,11,1,-3,-11,15,13,3,6,14,-6,-13,0,-82,-15,-8,-14,-19,-13,6,-18,20,9,1,-4,7,3,-16,0,27,24,2,1,-1,8,10,4,-11,-25,-5,2,-3,-8,5
-13,0,-82,-15,-8,-14,-19,-13,6,-18,20,9,1,-4,7,3,-16,0,27,24,2,1,-1,8,10,4,-11,-25,-5,2,-3,-8,0,-11,23,14,1,-11,-5,7,-11,6,-6,10,1,12,0,7,9,15,-32,-6,-1,3,11,12,-12,22,12,55,4,-3,-8,-12,5
-16,0,27,24,2,1,-1,8,10,4,-11,-25,-5,2,-3,-8,0,-11,23,14,1,-11,-5,7,-11,6,-6,10,1,12,0,7,9,15,-32,-6,-1,3,11,12,-12,22,12,55,4,-3,-8,-12,0,-19,73,-50,-13,-7,3,-23,7,-17,-61,-12,0,0,-3,11,5
0,-11,23,14,1,-11,-5,7,-11,6,-6,10,1,12,0,7,9,15,-32,-6,-1,3,11,12,-12,22,12,55,4,-3,-8,-12,0,-19,73,-50,-13,-7,3,-23,7,-17,-61,-12,0,0,-3,11,16,1,-30,8,2,-5,4,29,-7,0,-4,-23,-3,-4,3,-11,5
9,15,-32,-6,-1,3,11,12,-12,22,12,55,4,-3,-8,-12,0,-19,73,-50,-13,-7,3,-23,7,-17,-61,-12,0,0,-3,11,16,1,-30,8,2,-5,4,29,-7,0,-4,-23,-3,-4,3,-11,-9,7,53,15,3,-1,1,12,-11,-16,-9,-22,-8,1,0,-7,5
0,-19,73,-50,-13,-7,3,-23,7,-17,-61,-12,0,0,-3,11,16,1,-30,8,2,-5,4,29,-7,0,-4,-23,-3,-4,3,-11,-9,7,53,15,3,-1,1,12,-11,-16,-9,-22,-8,1,0,-7,6,32,-12,9,-4,3,11,-10,6,-26,-11,17,1,-2,5,-2,5
-9,7,53,15,3,-1,1,12,-11,-16,-9,-22,-8,1,0,-7,6,32,-12,9,-4,3,11,-10,6,-26,-11,17,1,-2,5,-2,-18,-8,-6,-47,-4,-3,-9,-11,3,-6,7,22,0,3,9,20,4,-18,-11,-13,-2,-15,4,0,-21,-9,30,11,3,17,12,-18,5
6,32,-12,9,-4,3,11,-10,6,-26,-11,17,1,-2,5,-2,-18,-8,-6,-47,-4,-3,-9,-11,3,-6,7,22,0,3,9,20,4,-18,-11,-13,-2,-15,4,0,-21,-9,30,11,3,17,12,-18,14,1,-30,0,-4,-2,13,16,-4,36,-29,-7,-1,-5,-4,-14,5
-18,-8,-6,-47,-4,-3,-9,-11,3,-6,7,22,0,3,9,20,4,-18,-11,-13,-2,-15,4,0,-21,-9,30,11,3,17,12,-18,14,1,-30,0,-4,-2,13,16,-4,36,-29,-7,-1,-5,-4,-14,10,-12,9,-9,-4,2,3,14,4,11,26,13,1,-8,-2,-1,5
14,1,-30,0,-4,-2,13,16,-4,36,-29,-7,-1,-5,-4,-14,10,-12,9,-9,-4,2,3,14,4,11,26,13,1,-8,-2,-1,-7,-5,-92,6,2,7,9,-3,7,-13,40,-1,2,-16,-24,-16,-5,-6,-10,17,-5,8,14,43,-4,9,13,-20,-9,-6,-14,-69,5
14,1,-30,0,-4,-2,13,16,-4,36,-29,-7,-1,-5,-4,-14,10,-12,9,-9,-4,2,3,14,4,11,26,13,1,-8,-2,-1,-7,-5,-92,6,2,7,9,-3,7,-13,40,-1,2,-16,-24,-16,-5,-6,-10,17,-5,8,14,43,-4,9,13,-20,-9,-6,-14,-69,5
-7,-5,-92,6,2,7,9,-3,7,-13,40,-1,2,-16,-24,-16,-5,-6,-10,17,-5,8,14,43,-4,9,13,-20,-9,-6,-14,-69,2,8,14,22,7,9,4,-2,6,3,-32,16,1,-1,3,13,-3,7,-32,-52,-1,-4,-7,-18,0,-11,0,12,-2,0,3,24,5
-5,-6,-10,17,-5,8,14,43,-4,9,13,-20,-9,-6,-14,-69,2,8,14,22,7,9,4,-2,6,3,-32,16,1,-1,3,13,-3,7,-32,-52,-1,-4,-7,-18,0,-11,0,12,-2,0,3,24,-4,8,56,19,-3,-9,-7,1,-12,23,-3,-12,-3,1,24,-14,5
2,8,14,22,7,9,4,-2,6,3,-32,16,1,-1,3,13,-3,7,-32,-52,-1,-4,-7,-18,0,-11,0,12,-2,0,3,24,-4,8,56,19,-3,-9,-7,1,-12,23,-3,-12,-3,1,24,-14,-3,-22,16,13,1,-1,-7,-5,-12,-10,-28,-7,-2,-2,1,12,5
-4,8,56,19,-3,-9,-7,1,-12,23,-3,-12,-3,1,24,-14,-3,-22,16,13,1,-1,-7,-5,-12,-10,-28,-7,-2,-2,1,12,0,26,13,16,-5,-8,-12,-16,16,-1,-12,-56,0,2,-5,24,-27,-20,5,14,1,-2,-4,-17,13,-10,29,35,-2,-7,0,9,5
-4,8,56,19,-3,-9,-7,1,-12,23,-3,-12,-3,1,24,-14,-3,-22,16,13,1,-1,-7,-5,-12,-10,-28,-7,-2,-2,1,12,0,26,13,16,-5,-8,-12,-16,16,-1,-12,-56,0,2,-5,24,-27,-20,5,14,1,-2,-4,-17,13,-10,29,35,-2,-7,0,9,5
0,26,13,16,-5,-8,-12,-16,16,-1,-12,-56,0,2,-5,24,-27,-20,5,14,1,-2,-4,-17,13,-10,29,35,-2,-7,0,9,2,-10,-48,-74,-3,3,13,0,2,0,7,51,7,7,3,1,7,11,-27,-20,-5,0,2,-3,-3,-10,-22,-7,-1,-3,-12,-5,5
2,-10,-48,-74,-3,3,13,0,2,0,7,51,7,7,3,1,7,11,-27,-20,-5,0,2,-3,-3,-10,-22,-7,-1,-3,-12,-5,4,-7,-19,7,-3,-6,-7,-4,0,13,31,1,-1,-3,-13,-5,3,3,30,3,-3,6,4,-17,-16,10,-30,-3,-4,-1,5,7,5
2,-10,-48,-74,-3,3,13,0,2,0,7,51,7,7,3,1,7,11,-27,-20,-5,0,2,-3,-3,-10,-22,-7,-1,-3,-12,-5,4,-7,-19,7,-3,-6,-7,-4,0,13,31,1,-1,-3,-13,-5,3,3,30,3,-3,6,4,-17,-16,10,-30,-3,-4,-1,5,7,5
4,-7,-19,7,-3,-6,-7,-4,0,13,31,1,-1,-3,-13,-5,3,3,30,3,-3,6,4,-17,-16,10,-30,-3,-4,-1,5,7,-6,-16,-5,-12,-3,-12,-22,-4,-6,-14,-11,0,1,6,-12,-14,-5,7,15,13,-3,0,-24,-3,9,-6,-5,-22,-5,-3,-2,9,5
3,3,30,3,-3,6,4,-17,-16,10,-30,-3,-4,-1,5,7,-6,-16,-5,-12,-3,-12,-22,-4,-6,-14,-11,0,1,6,-12,-14,-5,7,15,13,-3,0,-24,-3,9,-6,-5,-22,-5,-3,-2,9,10,15,26,24,10,8,26,9,-20,-18,-75,-12,-5,-7,-19,-5,5
-6,-16,-5,-12,-3,-12,-22,-4,-6,-14,-11,0,1,6,-12,-14,-5,7,15,13,-3,0,-24,-3,9,-6,-5,-22,-5,-3,-2,9,10,15,26,24,10,8,26,9,-20,-18,-75,-12,-5,-7,-19,-5,-3,0,26,5,2,-5,3,-7,-3,2,32,-6,-4,-3,1,-14,5
10,15,26,24,10,8,26,9,-20,-18,-75,-12,-5,-7,-19,-5,-3,0,26,5,2,-5,3,-7,-3,2,32,-6,-4,-3,1,-14,5,3,-8,26,2,5,-4,12,-3,-12,17,9,-1,-12,-2,8,-2,2,-1,26,4,3,8,3,-1,8,-14,-62,-4,-4,3,4,5
-3,0,26,5,2,-5,3,-7,-3,2,32,-6,-4,-3,1,-14,5,3,-8,26,2,5,-4,12,-3,-12,17,9,-1,-12,-2,8,-2,2,-1,26,4,3,8,3,-1,8,-14,-62,-4,-4,3,4,12,14,6,53,9,13,14,8,-8,-5,-25,-66,-10,-8,3,3,5
5,3,-8,26,2,5,-4,12,-3,-12,17,9,-1,-12,-2,8,-2,2,-1,26,4,3,8,3,-1,8,-14,-62,-4,-4,3,4,12,14,6,53,9,13,14,8,-8,-5,-25,-66,-10,-8,3,3,-10,-27,-25,-9,-3,-11,-20,-16,0,16,36,13,0,13,17,3,5
-2,2,-1,26,4,3,8,3,-1,8,-14,-62,-4,-4,3,4,12,14,6,53,9,13,14,8,-8,-5,-25,-66,-10,-8,3,3,-10,-27,-25,-9,-3,-11,-20,-16,0,16,36,13,0,13,17,3,12,17,-9,8,-2,4,-44,15,8,23,17,20,3,6,27,2,5
12,14,6,53,9,13,14,8,-8,-5,-25,-66,-10,-8,3,3,-10,-27,-25,-9,-3,-11,-20,-16,0,16,36,13,0,13,17,3,12,17,-9,8,-2,4,-44,15,8,23,17,20,3,6,27,2,8,4,-18,8,0,9,0,-2,-7,-9,0,-31,-1,-9,5,0,5
12,17,-9,8,-2,4,-44,15,8,23,17,20,3,6,27,2,8,4,-18,8,0,9,0,-2,-7,-9,0,-31,-1,-9,5,0,-9,-8,28,0,-6,-11,2,-12,4,-12,0,12,2,4,-2,-5,13,24,-3,-8,-4,-4,7,11,-17,-2,-12,20,5,-4,-12,0,5
8,4,-18,8,0,9,0,-2,-7,-9,0,-31,-1,-9,5,0,-9,-8,28,0,-6,-11,2,-12,4,-12,0,12,2,4,-2,-5,13,24,-3,-8,-4,-4,7,11,-17,-2,-12,20,5,-4,-12,0,-11,-13,-16,-14,3,1,14,2,-2,-29,7,-13,-2,-3,0,-6,5
-9,-8,28,0,-6,-11,2,-12,4,-12,0,12,2,4,-2,-5,13,24,-3,-8,-4,-4,7,11,-17,-2,-12,20,5,-4,-12,0,-11,-13,-16,-14,3,1,14,2,-2,-29,7,-13,-2,-3,0,-6,3,-12,27,7,-6,-3,7,6,9,-4,-20,6,1,-7,-5,1,5
13,24,-3,-8,-4,-4,7,11,-17,-2,-12,20,5,-4,-12,0,-11,-13,-16,-14,3,1,14,2,-2,-29,7,-13,-2,-3,0,-6,3,-12,27,7,-6,-3,7,6,9,-4,-20,6,1,-7,-5,1,2,20,-36,-9,-2,1,0,0,-7,-3,5,-30,-1,-12,-17,0,5
-11,-13,-16,-14,3,1,14,2,-2,-29,7,-13,-2,-3,0,-6,3,-12,27,7,-6,-3,7,6,9,-4,-20,6,1,-7,-5,1,2,20,-36,-9,-2,1,0,0,-7,-3,5,-30,-1,-12,-17,0,2,-9,43,32,-1,-3,1,-5,-5,10,16,20,2,32,28,3,5
2,20,-36,-9,-2,1,0,0,-7,-3,5,-30,-1,-12,-17,0,2,-9,43,32,-1,-3,1,-5,-5,10,16,20,2,32,28,3,1,1,8,-17,-3,-5,1,-25,18,-1,-46,10,3,6,9,18,-11,1,10,-15,-6,-6,-1,-4,2,23,-53,-2,-6,-17,-33,-5,5
2,-9,43,32,-1,-3,1,-5,-5,10,16,20,2,32,28,3,1,1,8,-17,-3,-5,1,-25,18,-1,-46,10,3,6,9,18,-11,1,10,-15,-6,-6,-1,-4,2,23,-53,-2,-6,-17,-33,-5,-23,-41,0,1,3,2,-4,-1,5,40,26,20,2,8,8,-5,5
1,1,8,-17,-3,-5,1,-25,18,-1,-46,10,3,6,9,18,-11,1,10,-15,-6,-6,-1,-4,2,23,-53,-2,-6,-17,-33,-5,-23,-41,0,1,3,2,-4,-1,5,40,26,20,2,8,8,-5,-6,-42,-35,-11,-6,-12,-14,2,-8,-8,-33,1,-3,5,15,-7,5
-23,-41,0,1,3,2,-4,-1,5,40,26,20,2,8,8,-5,-6,-42,-35,-11,-6,-12,-14,2,-8,-8,-33,1,-3,5,15,-7,24,-1,-19,-30,-5,-8,-19,8,-22,-5,32,20,0,-11,-16,-6,14,19,35,13,1,0,1,-2,-2,-14,-18,-8,-5,-4,-11,8,5
-23,-41,0,1,3,2,-4,-1,5,40,26,20,2,8,8,-5,-6,-42,-35,-11,-6,-12,-14,2,-8,-8,-33,1,-3,5,15,-7,24,-1,-19,-30,-5,-8,-19,8,-22,-5,32,20,0,-11,-16,-6,14,19,35,13,1,0,1,-2,-2,-14,-18,-8,-5,-4,-11,8,5
24,-1,-19,-30,-5,-8,-19,8,-22,-5,32,20,0,-11,-16,-6,14,19,35,13,1,0,1,-2,-2,-14,-18,-8,-5,-4,-11,8,-3,25,-16,4,2,3,9,3,1,-10,42,9,-5,-19,-16,-2,-8,5,-61,-29,1,13,11,-6,7,-19,13,-15,3,-7,-7,2,5
14,19,35,13,1,0,1,-2,-2,-14,-18,-8,-5,-4,-11,8,-3,25,-16,4,2,3,9,3,1,-10,42,9,-5,-19,-16,-2,-8,5,-61,-29,1,13,11,-6,7,-19,13,-15,3,-7,-7,2,-3,12,109,32,-6,-12,-11,-11,3,-8,-12,15,1,-1,13,1,5
-3,25,-16,4,2,3,9,3,1,-10,42,9,-5,-19,-16,-2,-8,5,-61,-29,1,13,11,-6,7,-19,13,-15,3,-7,-7,2,-3,12,109,32,-6,-12,-11,-11,3,-8,-12,15,1,-1,13,1,-9,9,-44,-6,2,3,6,5,0,-17,-11,-6,0,-4,-11,-21,5
-3,12,109,32,-6,-12,-11,-11,3,-8,-12,15,1,-1,13,1,-9,9,-44,-6,2,3,6,5,0,-17,-11,-6,0,-4,-11,-21,-8,-19,-18,-28,0,-9,11,1,1,14,51,42,-2,10,27,3,5,1,8,-60,-1,11,7,-1,12,-2,1,7,-5,-15,-20,10,5
-3,12,109,32,-6,-12,-11,-11,3,-8,-12,15,1,-1,13,1,-9,9,-44,-6,2,3,6,5,0,-17,-11,-6,0,-4,-11,-21,-8,-19,-18,-28,0,-9,11,1,1,14,51,42,-2,10,27,3,5,1,8,-60,-1,11,7,-1,12,-2,1,7,-5,-15,-20,10,5
-8,-19,-18,-28,0,-9,11,1,1,14,51,42,-2,10,27,3,5,1,8,-60,-1,11,7,-1,12,-2,1,7,-5,-15,-20,10,-6,-17,-37,0,2,15,4,-6,13,-4,-1,-5,-2,10,12,-5,-9,46,13,4,-2,-9,-11,6,-21,-39,10,11,0,6,-1,8,5
-8,-19,-18,-28,0,-9,11,1,1,14,51,42,-2,10,27,3,5,1,8,-60,-1,11,7,-1,12,-2,1,7,-5,-15,-20,10,-6,-17,-37,0,2,15,4,-6,13,-4,-1,-5,-2,10,12,-5,-9,46,13,4,-2,-9,-11,6,-21,-39,10,11,0,6,-1,8,5
-6,-17,-37,0,2,15,4,-6,13,-4,-1,-5,-2,10,12,-5,-9,46,13,4,-2,-9,-11,6,-21,-39,10,11,0,6,-1,8,-3,-21,1,-3,3,-2,-5,-6,3,-11,-24,-10,-5,-4,-11,-5,7,-12,-29,20,-1,4,12,11,-2,35,70,-18,0,-4,0,-5,5
-3,-21,1,-3,3,-2,-5,-6,3,-11,-24,-10,-5,-4,-11,-5,7,-12,-29,20,-1,4,12,11,-2,35,70,-18,0,-4,0,-5,-2,-11,-53,-20,-2,-2,-2,1,3,12,1,1,0,1,-9,-1,-7,-29,-20,13,-7,-14,-42,-14,-3,13,18,-2,-3,9,19,3,5
-3,-21,1,-3,3,-2,-5,-6,3,-11,-24,-10,-5,-4,-11,-5,7,-12,-29,20,-1,4,12,11,-2,35,70,-18,0,-4,0,-5,-2,-11,-53,-20,-2,-2,-2,1,3,12,1,1,0,1,-9,-1,-7,-29,-20,13,-7,-14,-42,-14,-3,13,18,-2,-3,9,19,3,5
-2,-11,-53,-20,-2,-2,-2,1,3,12,1,1,0,1,-9,-1,-7,-29,-20,13,-7,-14,-42,-14,-3,13,18,-2,-3,9,19,3,-1,-32,21,-4,1,13,4,7,-7,9,-57,-7,-3,2,-7,-4,8,4,40,-35,-5,-2,11,3,4,4,-21,18,4,7,10,3,5
-2,-11,-53,-20,-2,-2,-2,1,3,12,1,1,0,1,-9,-1,-7,-29,-20,13,-7,-14,-42,-14,-3,13,18,-2,-3,9,19,3,-1,-32,21,-4,1,13,4,7,-7,9,-57,-7,-3,2,-7,-4,8,4,40,-35,-5,-2,11,3,4,4,-21,18,4,7,10,3,5
-1,-32,21,-4,1,13,4,7,-7,9,-57,-7,-3,2,-7,-4,8,4,40,-35,-5,-2,11,3,4,4,-21,18,4,7,10,3,0,5,36,11,0,-5,-8,16,-4,-23,-14,-1,0,-5,-10,-21,-8,1,25,-1,-3,2,7,-10,7,-3,-14,-7,-1,-9,0,-3,5
0,5,36,11,0,-5,-8,16,-4,-23,-14,-1,0,-5,-10,-21,-8,1,25,-1,-3,2,7,-10,7,-3,-14,-7,-1,-9,0,-3,-10,17,-16,-14,-2,-7,4,2,-1,-6,8,0,-1,0,-9,3,5,8,29,41,11,-4,51,-6,0,9,46,-11,-8,-9,-30,-3,5
0,5,36,11,0,-5,-8,16,-4,-23,-14,-1,0,-5,-10,-21,-8,1,25,-1,-3,2,7,-10,7,-3,-14,-7,-1,-9,0,-3,-10,17,-16,-14,-2,-7,4,2,-1,-6,8,0,-1,0,-9,3,5,8,29,41,11,-4,51,-6,0,9,46,-11,-8,-9,-30,-3,5
-10,17,-16,-14,-2,-7,4,2,-1,-6,8,0,-1,0,-9,3,5,8,29,41,11,-4,51,-6,0,9,46,-11,-8,-9,-30,-3,5,13,25,58,5,-12,19,-4,4,-33,42,-56,-4,39,17,-1,-1,30,-60,-8,-2,6,16,6,8,7,-7,12,3,-25,-39,-2,5
5,8,29,41,11,-4,51,-6,0,9,46,-11,-8,-9,-30,-3,5,13,25,58,5,-12,19,-4,4,-33,42,-56,-4,39,17,-1,-1,30,-60,-8,-2,6,16,6,8,7,-7,12,3,-25,-39,-2,-14,-10,-10,-31,-2,18,9,-13,18,33,29,20,-2,-15,-8,-5,5
5,13,25,58,5,-12,19,-4,4,-33,42,-56,-4,39,17,-1,-1,30,-60,-8,-2,6,16,6,8,7,-7,12,3,-25,-39,-2,-14,-10,-10,-31,-2,18,9,-13,18,33,29,20,-2,-15,-8,-5,3,-3,-20,21,3,8,-12,6,-14,-46,-53,-56,-3,-1,38,1,5
-14,-10,-10,-31,-2,18,9,-13,18,33,29,20,-2,-15,-8,-5,3,-3,-20,21,3,8,-12,6,-14,-46,-53,-56,-3,-1,38,1,5,16,8,27,-4,-13,-34,-2,11,35,7,8,3,-8,-17,-5,-10,-31,9,-8,-6,-16,13,2,-32,25,2,22,3,19,17,-12,5
-14,-10,-10,-31,-2,18,9,-13,18,33,29,20,-2,-15,-8,-5,3,-3,-20,21,3,8,-12,6,-14,-46,-53,-56,-3,-1,38,1,5,16,8,27,-4,-13,-34,-2,11,35,7,8,3,-8,-17,-5,-10,-31,9,-8,-6,-16,13,2,-32,25,2,22,3,19,17,-12,5
5,16,8,27,-4,-13,-34,-2,11,35,7,8,3,-8,-17,-5,-10,-31,9,-8,-6,-16,13,2,-32,25,2,22,3,19,17,-12,1,8,7,-1,3,-15,-2,18,-9,-25,-21,-14,-8,10,45,0,16,-4,28,-5,-7,-14,-41,-8,13,27,60,28,2,8,12,1,5
-10,-31,9,-8,-6,-16,13,2,-32,25,2,22,3,19,17,-12,1,8,7,-1,3,-15,-2,18,-9,-25,-21,-14,-8,10,45,0,16,-4,28,-5,-7,-14,-41,-8,13,27,60,28,2,8,12,1,-8,-7,-67,-80,-3,-7,12,-7,-5,-46,-30,46,-3,5,-21,10,5
1,8,7,-1,3,-15,-2,18,-9,-25,-21,-14,-8,10,45,0,16,-4,28,-5,-7,-14,-41,-8,13,27,60,28,2,8,12,1,-8,-7,-67,-80,-3,-7,12,-7,-5,-46,-30,46,-3,5,-21,10,-16,32,55,-5,-4,-23,-34,-14,13,-21,-35,-4,0,-24,23,22,5
-8,-7,-67,-80,-3,-7,12,-7,-5,-46,-30,46,-3,5,-21,10,-16,32,55,-5,-4,-23,-34,-14,13,-21,-35,-4,0,-24,23,22,2,-11,27,21,6,14,2,-4,3,21,10,-5,0,15,-27,1,3,-6,20,2,-1,10,32,5,9,2,-14,6,4,0,-10,-5,5
-16,32,55,-5,-4,-23,-34,-14,13,-21,-35,-4,0,-24,23,22,2,-11,27,21,6,14,2,-4,3,21,10,-5,0,15,-27,1,3,-6,20,2,-1,10,32,5,9,2,-14,6,4,0,-10,-5,-2,-16,-10,5,-7,2,-25,-10,-15,-14,-110,-27,1,-4,26,6,5
2,-11,27,21,6,14,2,-4,3,21,10,-5,0,15,-27,1,3,-6,20,2,-1,10,32,5,9,2,-14,6,4,0,-10,-5,-2,-16,-10,5,-7,2,-25,-10,-15,-14,-110,-27,1,-4,26,6,-8,-7,11,-3,-4,-10,-10,-5,5,19,39,18,-4,15,6,-10,5
-2,-16,-10,5,-7,2,-25,-10,-15,-14,-110,-27,1,-4,26,6,-8,-7,11,-3,-4,-10,-10,-5,5,19,39,18,-4,15,6,-10,0,17,-13,28,2,-9,0,-5,0,12,7,-30,-4,2,15,15,9,13,-10,-10,4,23,0,-11,-16,-6,-35,-6,-6,-7,-4,-7,5
-2,-16,-10,5,-7,2,-25,-10,-15,-14,-110,-27,1,-4,26,6,-8,-7,11,-3,-4,-10,-10,-5,5,19,39,18,-4,15,6,-10,0,17,-13,28,2,-9,0,-5,0,12,7,-30,-4,2,15,15,9,13,-10,-10,4,23,0,-11,-16,-6,-35,-6,-6,-7,-4,-7,5
0,17,-13,28,2,-9,0,-5,0,12,7,-30,-4,2,15,15,9,13,-10,-10,4,23,0,-11,-16,-6,-35,-6,-6,-7,-4,-7,-13,-58,-3,-9,-5,-24,-8,0,16,45,65,20,4,7,-29,-6,-10,-10,-13,13,0,-10,1,11,7,-20,-39,10,3,0,-48,2,5
0,17,-13,28,2,-9,0,-5,0,12,7,-30,-4,2,15,15,9,13,-10,-10,4,23,0,-11,-16,-6,-35,-6,-6,-7,-4,-7,-13,-58,-3,-9,-5,-24,-8,0,16,45,65,20,4,7,-29,-6,-10,-10,-13,13,0,-10,1,11,7,-20,-39,10,3,0,-48,2,5
-13,-58,-3,-9,-5,-24,-8,0,16,45,65,20,4,7,-29,-6,-10,-10,-13,13,0,-10,1,11,7,-20,-39,10,3,0,-48,2,-8,4,-7,-46,-7,-3,0,-12,-3,0,73,14,-4,-53,-21,1,3,-17,-50,-12,-3,24,21,4,11,29,23,0,1,12,-3,3,5
-8,4,-7,-46,-7,-3,0,-12,-3,0,73,14,-4,-53,-21,1,3,-17,-50,-12,-3,24,21,4,11,29,23,0,1,12,-3,3,1,25,-2,13,9,16,7,10,-6,-13,-41,-26,-11,-46,-19,-4,1,52,33,19,2,27,12,-8,-27,-52,-5,-10,-3,15,13,-12,5
3,-17,-50,-12,-3,24,21,4,11,29,23,0,1,12,-3,3,1,25,-2,13,9,16,7,10,-6,-13,-41,-26,-11,-46,-19,-4,1,52,33,19,2,27,12,-8,-27,-52,-5,-10,-3,15,13,-12,22,-9,38,14,3,9,5,5,-4,-8,-15,-12,0,15,22,3,5
1,25,-2,13,9,16,7,10,-6,-13,-41,-26,-11,-46,-19,-4,1,52,33,19,2,27,12,-8,-27,-52,-5,-10,-3,15,13,-12,22,-9,38,14,3,9,5,5,-4,-8,-15,-12,0,15,22,3,-7,-22,59,19,3,-29,-32,-6,7,24,-44,-18,-1,-25,-16,21,5
1,52,33,19,2,27,12,-8,-27,-52,-5,-10,-3,15,13,-12,22,-9,38,14,3,9,5,5,-4,-8,-15,-12,0,15,22,3,-7,-22,59,19,3,-29,-32,-6,7,24,-44,-18,-1,-25,-16,21,11,-19,24,-1,-9,30,13,2,-3,3,12,4,2,0,42,-13,5
22,-9,38,14,3,9,5,5,-4,-8,-15,-12,0,15,22,3,-7,-22,59,19,3,-29,-32,-6,7,24,-44,-18,-1,-25,-16,21,11,-19,24,-1,-9,30,13,2,-3,3,12,4,2,0,42,-13,-2,27,6,3,-2,-15,8,14,11,-15,-40,-16,3,-24,-41,-9,5
11,-19,24,-1,-9,30,13,2,-3,3,12,4,2,0,42,-13,-2,27,6,3,-2,-15,8,14,11,-15,-40,-16,3,-24,-41,-9,2,4,-3,-3,-10,-3,46,12,-16,14,2,2,-1,11,-33,16,15,-16,4,-3,2,11,31,-3,0,-3,24,3,-2,-8,-1,-15,5
11,-19,24,-1,-9,30,13,2,-3,3,12,4,2,0,42,-13,-2,27,6,3,-2,-15,8,14,11,-15,-40,-16,3,-24,-41,-9,2,4,-3,-3,-10,-3,46,12,-16,14,2,2,-1,11,-33,16,15,-16,4,-3,2,11,31,-3,0,-3,24,3,-2,-8,-1,-15,5
2,4,-3,-3,-10,-3,46,12,-16,14,2,2,-1,11,-33,16,15,-16,4,-3,2,11,31,-3,0,-3,24,3,-2,-8,-1,-15,-4,-23,-38,-19,-2,-12,-12,11,-3,58,44,27,-5,4,-18,-7,-2,-62,-21,-19,-4,0,-3,12,5,54,57,10,-2,11,20,-8,5
2,4,-3,-3,-10,-3,46,12,-16,14,2,2,-1,11,-33,16,15,-16,4,-3,2,11,31,-3,0,-3,24,3,-2,-8,-1,-15,-4,-23,-38,-19,-2,-12,-12,11,-3,58,44,27,-5,4,-18,-7,-2,-62,-21,-19,-4,0,-3,12,5,54,57,10,-2,11,20,-8,5
-2,-62,-21,-19,-4,0,-3,12,5,54,57,10,-2,11,20,-8,-2,-52,-87,-23,0,3,-1,-15,-4,-23,38,13,4,2,-2,17,-8,2,-18,-10,2,1,-10,-14,-4,-12,-10,-18,8,-3,4,-10,-10,20,96,26,-14,-10,-17,-12,1,0,-1,32,4,-4,11,10,5
-2,-52,-87,-23,0,3,-1,-15,-4,-23,38,13,4,2,-2,17,-8,2,-18,-10,2,1,-10,-14,-4,-12,-10,-18,8,-3,4,-10,-10,20,96,26,-14,-10,-17,-12,1,0,-1,32,4,-4,11,10,-2,-8,14,-39,-2,-6,-7,5,0,14,-87,-33,-5,-3,-1,7,5
-8,2,-18,-10,2,1,-10,-14,-4,-12,-10,-18,8,-3,4,-10,-10,20,96,26,-14,-10,-17,-12,1,0,-1,32,4,-4,11,10,-2,-8,14,-39,-2,-6,-7,5,0,14,-87,-33,-5,-3,-1,7,14,59,10,32,6,1,-3,7,5,-32,-53,-21,-3,-28,-35,-11,5
-10,20,96,26,-14,-10,-17,-12,1,0,-1,32,4,-4,11,10,-2,-8,14,-39,-2,-6,-7,5,0,14,-87,-33,-5,-3,-1,7,14,59,10,32,6,1,-3,7,5,-32,-53,-21,-3,-28,-35,-11,-2,-14,7,-8,-3,-1,-2,-6,-13,8,-14,5,0,28,51,4,5
14,59,10,32,6,1,-3,7,5,-32,-53,-21,-3,-28,-35,-11,-2,-14,7,-8,-3,-1,-2,-6,-13,8,-14,5,0,28,51,4,-2,-9,-17,-14,-7,-14,-29,-2,1,-7,-34,-5,2,21,39,-11,10,22,4,15,8,-3,1,5,7,8,1,4,-1,-11,1,12,5
-2,-14,7,-8,-3,-1,-2,-6,-13,8,-14,5,0,28,51,4,-2,-9,-17,-14,-7,-14,-29,-2,1,-7,-34,-5,2,21,39,-11,10,22,4,15,8,-3,1,5,7,8,1,4,-1,-11,1,12,-18,-12,37,12,0,-15,-39,-26,-8,19,-12,-7,0,-4,23,6,5
-2,-9,-17,-14,-7,-14,-29,-2,1,-7,-34,-5,2,21,39,-11,10,22,4,15,8,-3,1,5,7,8,1,4,-1,-11,1,12,-18,-12,37,12,0,-15,-39,-26,-8,19,-12,-7,0,-4,23,6,4,22,-11,-21,-3,-3,-22,-8,0,-15,-1,6,-3,-3,-8,2,5
10,22,4,15,8,-3,1,5,7,8,1,4,-1,-11,1,12,-18,-12,37,12,0,-15,-39,-26,-8,19,-12,-7,0,-4,23,6,4,22,-11,-21,-3,-3,-22,-8,0,-15,-1,6,-3,-3,-8,2,0,18,9,0,0,-7,17,-9,-2,-26,-39,-5,-3,-21,-41,-21,5
-18,-12,37,12,0,-15,-39,-26,-8,19,-12,-7,0,-4,23,6,4,22,-11,-21,-3,-3,-22,-8,0,-15,-1,6,-3,-3,-8,2,0,18,9,0,0,-7,17,-9,-2,-26,-39,-5,-3,-21,-41,-21,-2,6,-4,21,0,20,32,8,4,10,-22,9,1,-32,-38,4,5
4,22,-11,-21,-3,-3,-22,-8,0,-15,-1,6,-3,-3,-8,2,0,18,9,0,0,-7,17,-9,-2,-26,-39,-5,-3,-21,-41,-21,-2,6,-4,21,0,20,32,8,4,10,-22,9,1,-32,-38,4,-8,17,30,-41,-6,3,-66,-19,8,-4,44,3,1,11,79,10,5
-2,6,-4,21,0,20,32,8,4,10,-22,9,1,-32,-38,4,-8,17,30,-41,-6,3,-66,-19,8,-4,44,3,1,11,79,10,-10,-25,-21,13,0,17,-2,-2,2,-4,27,-3,2,1,-24,-9,13,30,-30,2,6,-30,-28,9,-21,-17,54,11,3,39,87,1,5
-8,17,30,-41,-6,3,-66,-19,8,-4,44,3,1,11,79,10,-10,-25,-21,13,0,17,-2,-2,2,-4,27,-3,2,1,-24,-9,13,30,-30,2,6,-30,-28,9,-21,-17,54,11,3,39,87,1,4,-5,3,1,-2,-14,-60,10,-24,-37,0,-3,-9,-6,36,12,5
-10,-25,-21,13,0,17,-2,-2,2,-4,27,-3,2,1,-24,-9,13,30,-30,2,6,-30,-28,9,-21,-17,54,11,3,39,87,1,4,-5,3,1,-2,-14,-60,10,-24,-37,0,-3,-9,-6,36,12,29,7,1,-12,6,60,36,-3,-1,10,-11,-2,-2,-21,-52,0,5
13,30,-30,2,6,-30,-28,9,-21,-17,54,11,3,39,87,1,4,-5,3,1,-2,-14,-60,10,-24,-37,0,-3,-9,-6,36,12,29,7,1,-12,6,60,36,-3,-1,10,-11,-2,-2,-21,-52,0,8,21,30,9,0,13,27,12,3,-12,64,11,-1,-11,-24,1,5
4,-5,3,1,-2,-14,-60,10,-24,-37,0,-3,-9,-6,36,12,29,7,1,-12,6,60,36,-3,-1,10,-11,-2,-2,-21,-52,0,8,21,30,9,0,13,27,12,3,-12,64,11,-1,-11,-24,1,6,37,-17,31,2,-19,24,12,-15,-77,-77,-51,-9,-15,-53,-16,5
8,21,30,9,0,13,27,12,3,-12,64,11,-1,-11,-24,1,6,37,-17,31,2,-19,24,12,-15,-77,-77,-51,-9,-15,-53,-16,-23,-15,47,1,-5,6,-11,-19,7,-16,9,-2,2,83,64,-9,-6,-13,14,7,0,7,30,1,21,32,-25,-25,4,-3,-30,0,5
6,37,-17,31,2,-19,24,12,-15,-77,-77,-51,-9,-15,-53,-16,-23,-15,47,1,-5,6,-11,-19,7,-16,9,-2,2,83,64,-9,-6,-13,14,7,0,7,30,1,21,32,-25,-25,4,-3,-30,0,2,25,-28,21,4,-40,-31,2,-23,-32,70,3,-11,-13,9,-14,5
-23,-15,47,1,-5,6,-11,-19,7,-16,9,-2,2,83,64,-9,-6,-13,14,7,0,7,30,1,21,32,-25,-25,4,-3,-30,0,2,25,-28,21,4,-40,-31,2,-23,-32,70,3,-11,-13,9,-14,-2,-10,23,25,3,11,3,8,11,14,-76,-24,-1,21,16,-4,5
-23,-15,47,1,-5,6,-11,-19,7,-16,9,-2,2,83,64,-9,-6,-13,14,7,0,7,30,1,21,32,-25,-25,4,-3,-30,0,2,25,-28,21,4,-40,-31,2,-23,-32,70,3,-11,-13,9,-14,-2,-10,23,25,3,11,3,8,11,14,-76,-24,-1,21,16,-4,5
2,25,-28,21,4,-40,-31,2,-23,-32,70,3,-11,-13,9,-14,-2,-10,23,25,3,11,3,8,11,14,-76,-24,-1,21,16,-4,2,5,-31,-4,-1,-24,-42,2,5,7,-23,-15,4,-13,-26,-5,-6,11,84,2,-2,-15,28,14,-8,11,-29,4,-5,9,-5,-32,5
2,5,-31,-4,-1,-24,-42,2,5,7,-23,-15,4,-13,-26,-5,-6,11,84,2,-2,-15,28,14,-8,11,-29,4,-5,9,-5,-32,2,0,-15,-3,3,5,-11,-12,19,-2,-1,17,6,31,8,20,10,-11,-31,8,9,-10,-14,-7,-13,-3,8,-1,-2,2,12,18,5
-6,11,84,2,-2,-15,28,14,-8,11,-29,4,-5,9,-5,-32,2,0,-15,-3,3,5,-11,-12,19,-2,-1,17,6,31,8,20,10,-11,-31,8,9,-10,-14,-7,-13,-3,8,-1,-2,2,12,18,4,4,-1,-11,-9,24,52,-6,-5,3,-6,9,0,-18,-19,-6,5
2,0,-15,-3,3,5,-11,-12,19,-2,-1,17,6,31,8,20,10,-11,-31,8,9,-10,-14,-7,-13,-3,8,-1,-2,2,12,18,4,4,-1,-11,-9,24,52,-6,-5,3,-6,9,0,-18,-19,-6,-2,-2,0,-8,0,-2,2,2,5,-3,59,7,-2,-35,-16,19,5
10,-11,-31,8,9,-10,-14,-7,-13,-3,8,-1,-2,2,12,18,4,4,-1,-11,-9,24,52,-6,-5,3,-6,9,0,-18,-19,-6,-2,-2,0,-8,0,-2,2,2,5,-3,59,7,-2,-35,-16,19,-19,24,-21,4,3,-4,15,-5,8,14,-56,-31,-12,-43,-35,10,5
4,4,-1,-11,-9,24,52,-6,-5,3,-6,9,0,-18,-19,-6,-2,-2,0,-8,0,-2,2,2,5,-3,59,7,-2,-35,-16,19,-19,24,-21,4,3,-4,15,-5,8,14,-56,-31,-12,-43,-35,10,-16,-1,-9,-13,-6,11,10,-26,4,-18,44,40,4,-23,-18,2,5
-2,-2,0,-8,0,-2,2,2,5,-3,59,7,-2,-35,-16,19,-19,24,-21,4,3,-4,15,-5,8,14,-56,-31,-12,-43,-35,10,-16,-1,-9,-13,-6,11,10,-26,4,-18,44,40,4,-23,-18,2,-6,-9,-81,-29,6,24,35,-18,5,-12,94,20,-1,-6,-9,-4,5
-2,-2,0,-8,0,-2,2,2,5,-3,59,7,-2,-35,-16,19,-19,24,-21,4,3,-4,15,-5,8,14,-56,-31,-12,-43,-35,10,-16,-1,-9,-13,-6,11,10,-26,4,-18,44,40,4,-23,-18,2,-6,-9,-81,-29,6,24,35,-18,5,-12,94,20,-1,-6,-9,-4,5
-16,-1,-9,-13,-6,11,10,-26,4,-18,44,40,4,-23,-18,2,-6,-9,-81,-29,6,24,35,-18,5,-12,94,20,-1,-6,-9,-4,-37,-2,25,10,-13,-50,-68,-3,-4,10,7,-18,-4,54,74,-10,9,-23,-65,20,3,34,65,32,-4,19,15,-12,5,12,-2,-16,5
-37,-2,25,10,-13,-50,-68,-3,-4,10,7,-18,-4,54,74,-10,9,-23,-65,20,3,34,65,32,-4,19,15,-12,5,12,-2,-16,6,-21,-67,20,-4,-20,-41,-6,-5,-15,77,19,-6,-12,-70,4,-4,-16,41,-6,-4,9,-26,-2,8,37,17,0,2,32,57,13,5
-37,-2,25,10,-13,-50,-68,-3,-4,10,7,-18,-4,54,74,-10,9,-23,-65,20,3,34,65,32,-4,19,15,-12,5,12,-2,-16,6,-21,-67,20,-4,-20,-41,-6,-5,-15,77,19,-6,-12,-70,4,-4,-16,41,-6,-4,9,-26,-2,8,37,17,0,2,32,57,13,5
6,-21,-67,20,-4,-20,-41,-6,-5,-15,77,19,-6,-12,-70,4,-4,-16,41,-6,-4,9,-26,-2,8,37,17,0,2,32,57,13,0,25,-26,9,2,-4,-27,8,-3,19,0,-14,0,13,17,-10,1,-34,21,8,-9,-1,-37,-20,-22,-12,-72,5,2,-45,-22,-5,5
6,-21,-67,20,-4,-20,-41,-6,-5,-15,77,19,-6,-12,-70,4,-4,-16,41,-6,-4,9,-26,-2,8,37,17,0,2,32,57,13,0,25,-26,9,2,-4,-27,8,-3,19,0,-14,0,13,17,-10,1,-34,21,8,-9,-1,-37,-20,-22,-12,-72,5,2,-45,-22,-5,5
0,25,-26,9,2,-4,-27,8,-3,19,0,-14,0,13,17,-10,1,-34,21,8,-9,-1,-37,-20,-22,-12,-72,5,2,-45,-22,-5,10,11,-10,-40,-7,25,43,35,11,13,-16,-3,2,-13,-4,-24,-16,57,70,19,2,8,10,-1,7,-58,-30,-6,0,14,5,2,5
10,11,-10,-40,-7,25,43,35,11,13,-16,-3,2,-13,-4,-24,-16,57,70,19,2,8,10,-1,7,-58,-30,-6,0,14,5,2,-7,-43,10,-51,-7,-32,7,7,-16,-45,-19,32,-5,-1,-41,-2,19,-24,4,-23,-6,-64,-2,-2,-13,-36,2,4,-5,6,-27,4,5
10,11,-10,-40,-7,25,43,35,11,13,-16,-3,2,-13,-4,-24,-16,57,70,19,2,8,10,-1,7,-58,-30,-6,0,14,5,2,-7,-43,10,-51,-7,-32,7,7,-16,-45,-19,32,-5,-1,-41,-2,19,-24,4,-23,-6,-64,-2,-2,-13,-36,2,4,-5,6,-27,4,5
-16,57,70,19,2,8,10,-1,7,-58,-30,-6,0,14,5,2,-7,-43,10,-51,-7,-32,7,7,-16,-45,-19,32,-5,-1,-41,-2,19,-24,4,-23,-6,-64,-2,-2,-13,-36,2,4,-5,6,-27,4,10,24,5,7,2,11,11,2,22,-9,-2,-17,0,-34,-29,-3,5
19,-24,4,-23,-6,-64,-2,-2,-13,-36,2,4,-5,6,-27,4,10,24,5,7,2,11,11,2,22,-9,-2,-17,0,-34,-29,-3,-9,-23,-17,21,2,-2,6,-7,-10,-8,-41,-59,-11,-17,-20,-7,-1,-36,33,25,-3,26,30,-4,-7,-45,-2,1,1,-6,18,7,5
10,24,5,7,2,11,11,2,22,-9,-2,-17,0,-34,-29,-3,-9,-23,-17,21,2,-2,6,-7,-10,-8,-41,-59,-11,-17,-20,-7,-1,-36,33,25,-3,26,30,-4,-7,-45,-2,1,1,-6,18,7,20,-14,-38,-15,0,2,19,20,5,1,-18,17,-1,2,30,-4,5
-1,-36,33,25,-3,26,30,-4,-7,-45,-2,1,1,-6,18,7,20,-14,-38,-15,0,2,19,20,5,1,-18,17,-1,2,30,-4,-1,-3,-33,-19,-11,-8,-36,-7,-2,-9,-14,-30,-2,-86,-42,0,-3,26,11,-18,-4,57,69,29,2,5,-5,7,-4,16,-15,-42,5
-1,-36,33,25,-3,26,30,-4,-7,-45,-2,1,1,-6,18,7,20,-14,-38,-15,0,2,19,20,5,1,-18,17,-1,2,30,-4,-1,-3,-33,-19,-11,-8,-36,-7,-2,-9,-14,-30,-2,-86,-42,0,-3,26,11,-18,-4,57,69,29,2,5,-5,7,-4,16,-15,-42,5
20,-14,-38,-15,0,2,19,20,5,1,-18,17,-1,2,30,-4,-1,-3,-33,-19,-11,-8,-36,-7,-2,-9,-14,-30,-2,-86,-42,0,-3,26,11,-18,-4,57,69,29,2,5,-5,7,-4,16,-15,-42,-8,-2,-50,-14,-2,-8,32,4,23,-8,45,66,5,4,23,4,5
-1,-3,-33,-19,-11,-8,-36,-7,-2,-9,-14,-30,-2,-86,-42,0,-3,26,11,-18,-4,57,69,29,2,5,-5,7,-4,16,-15,-42,-8,-2,-50,-14,-2,-8,32,4,23,-8,45,66,5,4,23,4,-12,-41,-12,-45,-3,-56,-70,3,-23,4,-23,-23,-7,-10,-25,-7,5
-8,-2,-50,-14,-2,-8,32,4,23,-8,45,66,5,4,23,4,-12,-41,-12,-45,-3,-56,-70,3,-23,4,-23,-23,-7,-10,-25,-7,-3,7,17,34,8,39,40,-9,6,36,-6,-33,4,29,1,5,-5,0,-16,32,-3,-34,-50,-15,-10,32,59,18,0,-21,-68,-6,5
-3,7,17,34,8,39,40,-9,6,36,-6,-33,4,29,1,5,-5,0,-16,32,-3,-34,-50,-15,-10,32,59,18,0,-21,-68,-6,1,-4,-25,-9,4,10,-13,-3,-18,18,-8,-10,-5,51,78,-1,3,8,62,10,-1,-21,-19,-6,-8,-32,-34,-18,-1,-6,5,0,5
-3,7,17,34,8,39,40,-9,6,36,-6,-33,4,29,1,5,-5,0,-16,32,-3,-34,-50,-15,-10,32,59,18,0,-21,-68,-6,1,-4,-25,-9,4,10,-13,-3,-18,18,-8,-10,-5,51,78,-1,3,8,62,10,-1,-21,-19,-6,-8,-32,-34,-18,-1,-6,5,0,5
1,-4,-25,-9,4,10,-13,-3,-18,18,-8,-10,-5,51,78,-1,3,8,62,10,-1,-21,-19,-6,-8,-32,-34,-18,-1,-6,5,0,-7,-30,-46,32,-1,-14,-80,5,3,-4,96,-33,2,54,88,12,12,-9,-82,-13,-2,48,47,11,-6,9,38,19,5,13,65,17,5
1,-4,-25,-9,4,10,-13,-3,-18,18,-8,-10,-5,51,78,-1,3,8,62,10,-1,-21,-19,-6,-8,-32,-34,-18,-1,-6,5,0,-7,-30,-46,32,-1,-14,-80,5,3,-4,96,-33,2,54,88,12,12,-9,-82,-13,-2,48,47,11,-6,9,38,19,5,13,65,17,5
-7,-30,-46,32,-1,-14,-80,5,3,-4,96,-33,2,54,88,12,12,-9,-82,-13,-2,48,47,11,-6,9,38,19,5,13,65,17,8,69,1,16,6,-37,-19,-14,1,-51,-21,-2,-11,58,18,-16,-2,22,44,11,-2,-29,-18,-4,8,-3,54,22,12,10,7,10,5
8,69,1,16,6,-37,-19,-14,1,-51,-21,-2,-11,58,18,-16,-2,22,44,11,-2,-29,-18,-4,8,-3,54,22,12,10,7,10,-1,-2,-60,-33,-7,-11,19,-8,-5,-19,-17,-5,-2,-5,7,-2,-17,-41,-9,-28,-14,-12,-31,-30,9,21,-4,20,-5,-68,-66,-15,5
8,69,1,16,6,-37,-19,-14,1,-51,-21,-2,-11,58,18,-16,-2,22,44,11,-2,-29,-18,-4,8,-3,54,22,12,10,7,10,-1,-2,-60,-33,-7,-11,19,-8,-5,-19,-17,-5,-2,-5,7,-2,-17,-41,-9,-28,-14,-12,-31,-30,9,21,-4,20,-5,-68,-66,-15,5
-1,-2,-60,-33,-7,-11,19,-8,-5,-19,-17,-5,-2,-5,7,-2,-17,-41,-9,-28,-14,-12,-31,-30,9,21,-4,20,-5,-68,-66,-15,-15,-20,9,-6,4,36,23,-3,9,20,61,20,5,-13,-71,24,-32,3,9,21,-8,-87,-51,-51,13,-57,-23,-16,-1,66,71,14,5
-15,-20,9,-6,4,36,23,-3,9,20,61,20,5,-13,-71,24,-32,3,9,21,-8,-87,-51,-51,13,-57,-23,-16,-1,66,71,14,-1,-10,-74,-41,-19,-47,-79,-21,-43,69,87,38,-7,-45,-34,-21,2,33,-56,-9,7,93,77,-8,7,21,-17,-7,-9,-61,-45,23,5
-15,-20,9,-6,4,36,23,-3,9,20,61,20,5,-13,-71,24,-32,3,9,21,-8,-87,-51,-51,13,-57,-23,-16,-1,66,71,14,-1,-10,-74,-41,-19,-47,-79,-21,-43,69,87,38,-7,-45,-34,-21,2,33,-56,-9,7,93,77,-8,7,21,-17,-7,-9,-61,-45,23,5
-1,-10,-74,-41,-19,-47,-79,-21,-43,69,87,38,-7,-45,-34,-21,2,33,-56,-9,7,93,77,-8,7,21,-17,-7,-9,-61,-45,23,5,-15,27,25,17,62,99,15,18,48,-25,9,8,24,33,2,-5,-41,-24,-22,-9,-55,-40,7,0,78,36,52,6,12,48,-7,5
2,33,-56,-9,7,93,77,-8,7,21,-17,-7,-9,-61,-45,23,5,-15,27,25,17,62,99,15,18,48,-25,9,8,24,33,2,-5,-41,-24,-22,-9,-55,-40,7,0,78,36,52,6,12,48,-7,1,-75,-47,-19,-4,-25,-51,-2,-19,-49,-80,-27,-14,-49,-63,-6,5
5,-15,27,25,17,62,99,15,18,48,-25,9,8,24,33,2,-5,-41,-24,-22,-9,-55,-40,7,0,78,36,52,6,12,48,-7,1,-75,-47,-19,-4,-25,-51,-2,-19,-49,-80,-27,-14,-49,-63,-6,0,3,38,1,8,69,36,16,7,-11,-15,-19,5,11,7,6,5
5,-15,27,25,17,62,99,15,18,48,-25,9,8,24,33,2,-5,-41,-24,-22,-9,-55,-40,7,0,78,36,52,6,12,48,-7,1,-75,-47,-19,-4,-25,-51,-2,-19,-49,-80,-27,-14,-49,-63,-6,0,3,38,1,8,69,36,16,7,-11,-15,-19,5,11,7,6,5
1,-75,-47,-19,-4,-25,-51,-2,-19,-49,-80,-27,-14,-49,-63,-6,0,3,38,1,8,69,36,16,7,-11,-15,-19,5,11,7,6,-16,-39,89,26,-3,-12,-14,-11,9,-1,4,-33,-1,-27,-16,3,-2,9,-8,9,1,-11,45,42,-4,-15,23,-7,4,72,34,-14,5
-16,-39,89,26,-3,-12,-14,-11,9,-1,4,-33,-1,-27,-16,3,-2,9,-8,9,1,-11,45,42,-4,-15,23,-7,4,72,34,-14,18,48,-18,-29,-1,41,50,7,5,-3,37,-8,-11,-55,-38,-13,19,4,-25,24,5,-24,-55,10,5,79,51,-19,-11,-68,-38,-6,5
-2,9,-8,9,1,-11,45,42,-4,-15,23,-7,4,72,34,-14,18,48,-18,-29,-1,41,50,7,5,-3,37,-8,-11,-55,-38,-13,19,4,-25,24,5,-24,-55,10,5,79,51,-19,-11,-68,-38,-6,5,16,5,-12,2,-14,37,4,-22,38,5,18,3,35,72,4,5
18,48,-18,-29,-1,41,50,7,5,-3,37,-8,-11,-55,-38,-13,19,4,-25,24,5,-24,-55,10,5,79,51,-19,-11,-68,-38,-6,5,16,5,-12,2,-14,37,4,-22,38,5,18,3,35,72,4,5,8,-24,-15,-18,-101,-112,-27,12,-58,-61,16,5,27,18,26,5
19,4,-25,24,5,-24,-55,10,5,79,51,-19,-11,-68,-38,-6,5,16,5,-12,2,-14,37,4,-22,38,5,18,3,35,72,4,5,8,-24,-15,-18,-101,-112,-27,12,-58,-61,16,5,27,18,26,3,5,32,6,-8,-16,39,-1,5,3,-43,-7,4,51,64,-22,5
5,16,5,-12,2,-14,37,4,-22,38,5,18,3,35,72,4,5,8,-24,-15,-18,-101,-112,-27,12,-58,-61,16,5,27,18,26,3,5,32,6,-8,-16,39,-1,5,3,-43,-7,4,51,64,-22,1,-2,76,14,13,10,17,-2,-17,10,-39,-2,-4,42,17,6,5
3,5,32,6,-8,-16,39,-1,5,3,-43,-7,4,51,64,-22,1,-2,76,14,13,10,17,-2,-17,10,-39,-2,-4,42,17,6,12,24,36,-6,-5,-17,-34,-5,26,33,-4,8,2,-48,0,14,-17,-24,-39,-4,4,68,26,49,-25,-32,-14,-14,-4,-24,-22,-71,5
3,5,32,6,-8,-16,39,-1,5,3,-43,-7,4,51,64,-22,1,-2,76,14,13,10,17,-2,-17,10,-39,-2,-4,42,17,6,12,24,36,-6,-5,-17,-34,-5,26,33,-4,8,2,-48,0,14,-17,-24,-39,-4,4,68,26,49,-25,-32,-14,-14,-4,-24,-22,-71,5
12,24,36,-6,-5,-17,-34,-5,26,33,-4,8,2,-48,0,14,-17,-24,-39,-4,4,68,26,49,-25,-32,-14,-14,-4,-24,-22,-71,0,27,57,18,0,-2,-8,3,3,-1,-91,-11,2,33,-5,-2,10,-6,52,-15,-7,-3,-15,-2,-8,27,20,5,2,-24,-20,15,5
12,24,36,-6,-5,-17,-34,-5,26,33,-4,8,2,-48,0,14,-17,-24,-39,-4,4,68,26,49,-25,-32,-14,-14,-4,-24,-22,-71,0,27,57,18,0,-2,-8,3,3,-1,-91,-11,2,33,-5,-2,10,-6,52,-15,-7,-3,-15,-2,-8,27,20,5,2,-24,-20,15,5
0,27,57,18,0,-2,-8,3,3,-1,-91,-11,2,33,-5,-2,10,-6,52,-15,-7,-3,-15,-2,-8,27,20,5,2,-24,-20,15,-4,-15,-46,35,10,-7,-5,8,-29,-15,118,10,-19,24,-35,-7,20,49,-16,-27,-3,42,103,8,-3,6,-9,-7,-5,-48,-28,-5,5
10,-6,52,-15,-7,-3,-15,-2,-8,27,20,5,2,-24,-20,15,-4,-15,-46,35,10,-7,-5,8,-29,-15,118,10,-19,24,-35,-7,20,49,-16,-27,-3,42,103,8,-3,6,-9,-7,-5,-48,-28,-5,3,-29,-5,14,1,-15,-28,-12,-16,-27,-34,8,19,78,66,-2,5
-4,-15,-46,35,10,-7,-5,8,-29,-15,118,10,-19,24,-35,-7,20,49,-16,-27,-3,42,103,8,-3,6,-9,-7,-5,-48,-28,-5,3,-29,-5,14,1,-15,-28,-12,-16,-27,-34,8,19,78,66,-2,-2,-70,-96,-7,-8,51,4,46,6,14,105,13,-9,-94,-84,-38,5
20,49,-16,-27,-3,42,103,8,-3,6,-9,-7,-5,-48,-28,-5,3,-29,-5,14,1,-15,-28,-12,-16,-27,-34,8,19,78,66,-2,-2,-70,-96,-7,-8,51,4,46,6,14,105,13,-9,-94,-84,-38,-15,70,-24,-10,0,20,-19,19,9,-40,-62,7,0,-48,-10,8,5
3,-29,-5,14,1,-15,-28,-12,-16,-27,-34,8,19,78,66,-2,-2,-70,-96,-7,-8,51,4,46,6,14,105,13,-9,-94,-84,-38,-15,70,-24,-10,0,20,-19,19,9,-40,-62,7,0,-48,-10,8,-14,14,97,-18,1,-13,-71,-56,13,16,3,-5,5,34,24,16,5
-15,70,-24,-10,0,20,-19,19,9,-40,-62,7,0,-48,-10,8,-14,14,97,-18,1,-13,-71,-56,13,16,3,-5,5,34,24,16,13,20,20,-12,-12,-4,-27,-2,-16,-16,10,3,-2,-22,-36,-11,-2,13,-17,21,3,-25,-28,-19,-18,-40,-36,14,5,54,67,21,5
-14,14,97,-18,1,-13,-71,-56,13,16,3,-5,5,34,24,16,13,20,20,-12,-12,-4,-27,-2,-16,-16,10,3,-2,-22,-36,-11,-2,13,-17,21,3,-25,-28,-19,-18,-40,-36,14,5,54,67,21,15,71,39,-55,2,17,48,-6,-7,26,8,6,-11,-57,-86,2,5
13,20,20,-12,-12,-4,-27,-2,-16,-16,10,3,-2,-22,-36,-11,-2,13,-17,21,3,-25,-28,-19,-18,-40,-36,14,5,54,67,21,15,71,39,-55,2,17,48,-6,-7,26,8,6,-11,-57,-86,2,9,23,7,31,9,-28,-20,-14,10,-39,-8,23,1,83,-2,32,5
15,71,39,-55,2,17,48,-6,-7,26,8,6,-11,-57,-86,2,9,23,7,31,9,-28,-20,-14,10,-39,-8,23,1,83,-2,32,-24,-43,-14,-41,4,11,63,-11,19,-35,-16,2,7,-10,-5,23,5,-1,21,12,-2,-92,-65,-3,-12,-7,-9,3,-6,-10,-42,-48,5
15,71,39,-55,2,17,48,-6,-7,26,8,6,-11,-57,-86,2,9,23,7,31,9,-28,-20,-14,10,-39,-8,23,1,83,-2,32,-24,-43,-14,-41,4,11,63,-11,19,-35,-16,2,7,-10,-5,23,5,-1,21,12,-2,-92,-65,-3,-12,-7,-9,3,-6,-10,-42,-48,5
-24,-43,-14,-41,4,11,63,-11,19,-35,-16,2,7,-10,-5,23,5,-1,21,12,-2,-92,-65,-3,-12,-7,-9,3,-6,-10,-42,-48,11,-41,-21,-13,-1,-48,-38,27,-17,17,37,29,3,42,54,30,-4,-24,-39,-52,-18,-25,-11,-24,19,91,28,18,6,3,34,12,5
5,-1,21,12,-2,-92,-65,-3,-12,-7,-9,3,-6,-10,-42,-48,11,-41,-21,-13,-1,-48,-38,27,-17,17,37,29,3,42,54,30,-4,-24,-39,-52,-18,-25,-11,-24,19,91,28,18,6,3,34,12,-19,-93,-91,-6,-18,-22,-26,-28,7,37,19,2,-4,-103,-97,-3,5
11,-41,-21,-13,-1,-48,-38,27,-17,17,37,29,3,42,54,30,-4,-24,-39,-52,-18,-25,-11,-24,19,91,28,18,6,3,34,12,-19,-93,-91,-6,-18,-22,-26,-28,7,37,19,2,-4,-103,-97,-3,-3,-60,-16,-1,14,105,108,9,-5,-21,6,-3,-4,-29,-73,-16,5
-4,-24,-39,-52,-18,-25,-11,-24,19,91,28,18,6,3,34,12,-19,-93,-91,-6,-18,-22,-26,-28,7,37,19,2,-4,-103,-97,-3,-3,-60,-16,-1,14,105,108,9,-5,-21,6,-3,-4,-29,-73,-16,12,2,13,4,3,17,21,32,-12,5,-27,-8,-3,-18,-23,-11,5
-19,-93,-91,-6,-18,-22,-26,-28,7,37,19,2,-4,-103,-97,-3,-3,-60,-16,-1,14,105,108,9,-5,-21,6,-3,-4,-29,-73,-16,12,2,13,4,3,17,21,32,-12,5,-27,-8,-3,-18,-23,-11,4,15,4,22,-1,-10,28,7,-7,7,0,-58,-7,-25,-25,-18,5
-3,-60,-16,-1,14,105,108,9,-5,-21,6,-3,-4,-29,-73,-16,12,2,13,4,3,17,21,32,-12,5,-27,-8,-3,-18,-23,-11,4,15,4,22,-1,-10,28,7,-7,7,0,-58,-7,-25,-25,-18,4,32,43,87,8,-34,-26,4,23,11,-39,-44,-3,19,11,15,5
4,15,4,22,-1,-10,28,7,-7,7,0,-58,-7,-25,-25,-18,4,32,43,87,8,-34,-26,4,23,11,-39,-44,-3,19,11,15,-7,38,35,2,4,30,40,-7,-23,-18,-24,4,-3,-1,71,14,9,64,37,27,-1,-22,-39,-16,3,-37,-79,-17,-4,-8,-35,-12,5
4,32,43,87,8,-34,-26,4,23,11,-39,-44,-3,19,11,15,-7,38,35,2,4,30,40,-7,-23,-18,-24,4,-3,-1,71,14,9,64,37,27,-1,-22,-39,-16,3,-37,-79,-17,-4,-8,-35,-12,-6,-36,43,42,-5,-83,-103,-4,11,-6,-28,-84,2,89,102,7,5
9,64,37,27,-1,-22,-39,-16,3,-37,-79,-17,-4,-8,-35,-12,-6,-36,43,42,-5,-83,-103,-4,11,-6,-28,-84,2,89,102,7,-25,-6,47,7,-5,15,23,-9,23,13,-1,-34,-1,-12,-3,-18,1,36,0,14,3,-26,-57,7,-7,-43,-21,32,5,6,8,17,5
9,64,37,27,-1,-22,-39,-16,3,-37,-79,-17,-4,-8,-35,-12,-6,-36,43,42,-5,-83,-103,-4,11,-6,-28,-84,2,89,102,7,-25,-6,47,7,-5,15,23,-9,23,13,-1,-34,-1,-12,-3,-18,1,36,0,14,3,-26,-57,7,-7,-43,-21,32,5,6,8,17,5
-25,-6,47,7,-5,15,23,-9,23,13,-1,-34,-1,-12,-3,-18,1,36,0,14,3,-26,-57,7,-7,-43,-21,32,5,6,8,17,-11,-3,61,7,-4,11,-3,-24,6,9,4,1,2,39,12,8,-11,74,2,2,4,0,2,1,-10,-17,-6,-8,-5,-47,-49,-11,5
-25,-6,47,7,-5,15,23,-9,23,13,-1,-34,-1,-12,-3,-18,1,36,0,14,3,-26,-57,7,-7,-43,-21,32,5,6,8,17,-11,-3,61,7,-4,11,-3,-24,6,9,4,1,2,39,12,8,-11,74,2,2,4,0,2,1,-10,-17,-6,-8,-5,-47,-49,-11,5
